32,80,61,76,31,20,21,53
34,62,63,38,20,20,21,57
46,56,63,49,23,19,21,59
47,46,62,48,23,19,18,60
47,36,135,47,23,16,19,53
44,34,151,47,22,17,18,36
41,34,150,45,23,18,17,27
35,34,148,30,22,18,18,34
38,31,167,63,26,20,18,33
52,30,127,65,24,20,16,35
54,30,118,64,25,21,17,34
56,33,147,64,23,21,18,34
53,31,152,64,23,21,17,22
53,29,134,34,19,21,16,24
46,29,127,29,19,21,16,63
46,31,118,29,20,21,19,69
45,27,80,31,19,21,18,70
46,28,64,28,20,20,19,72
43,28,58,26,21,18,20,72
36,31,61,25,22,18,21,48
39,28,56,25,21,17,19,60
42,30,67,21,21,15,20,65
40,29,70,24,20,16,19,64
42,30,69,23,19,18,18,68
42,26,73,22,20,18,18,63
34,28,90,22,23,17,18,45
27,30,90,23,22,18,17,37
25,28,88,20,22,19,20,36
63,28,90,19,22,18,19,59
69,30,86,19,20,18,19,64
69,31,72,20,18,18,19,68
70,27,56,19,18,19,19,68
70,27,59,20,19,17,17,69
41,31,75,21,18,17,17,47
33,31,75,22,20,16,17,39
39,28,74,23,21,17,15,46
40,27,77,25,20,16,18,53
39,30,73,25,20,16,18,54
36,27,53,25,20,16,18,53
41,26,40,24,19,15,20,54
38,27,36,24,20,16,20,51
37,26,24,20,21,18,17,43
41,27,25,21,23,19,18,58
43,25,25,22,23,18,19,61
35,27,34,22,23,17,17,59
33,26,44,21,20,16,19,56
33,27,45,22,21,16,20,57
31,26,56,20,19,15,19,41
28,26,56,19,19,17,20,37
39,25,63,22,21,18,20,60
40,28,58,20,21,18,20,59
38,28,59,21,20,20,20,58
38,27,55,20,20,22,20,57
39,27,55,20,20,22,21,64
27,28,42,18,21,24,22,44
26,25,46,20,21,24,19,42
28,25,74,19,20,22,18,41
26,26,74,21,22,21,18,39
35,27,75,22,23,21,18,46
41,28,81,22,21,16,18,49
41,31,78,22,21,20,20,55
39,29,54,22,22,19,20,56
40,28,50,21,19,21,21,57
31,27,47,22,21,20,19,45
23,25,37,22,20,22,18,40
22,25,35,20,19,19,19,28
22,26,41,22,20,22,20,27
23,27,49,23,23,20,18,24
23,32,66,23,21,19,18,20
23,32,65,25,23,18,18,20
23,30,69,25,24,20,17,17
31,31,70,24,24,19,15,20
53,33,71,23,21,22,18,22
54,32,99,22,21,23,18,22
56,32,103,20,20,25,18,22
58,32,107,22,19,23,18,23
54,36,122,25,18,23,19,20
34,36,126,42,23,22,17,18
62,36,144,137,33,21,17,20
105,39,152,147,37,19,16,29
112,41,162,159,45,22,19,30
131,63,221,244,101,31,20,33
139,70,220,252,106,33,43,47
192,71,199,225,107,36,131,142
208,103,199,227,112,62,225,187
240,118,192,249,147,70,248,230
250,115,118,179,122,75,287,319
260,132,122,171,120,89,340,346
249,141,125,223,131,98,334,346
259,131,114,225,130,94,418,356
237,133,112,208,92,93,459,393
229,136,96,217,90,95,458,375
245,128,93,245,101,97,477,576
231,127,77,212,89,90,487,577
199,123,78,255,130,91,390,581
212,125,83,282,142,106,392,653
246,135,90,278,144,102,392,661
322,177,93,372,167,90,343,501
352,204,97,420,183,93,358,549
386,215,120,476,228,111,366,589
453,217,133,486,230,106,441,549
480,216,143,582,256,129,514,535
497,223,185,633,306,145,511,561
509,233,213,702,327,155,565,600
533,243,206,695,288,144,586,579
601,265,204,718,296,148,497,533
625,269,217,795,317,133,420,523
620,247,209,844,297,118,450,516
620,247,191,783,270,109,391,512
633,245,196,833,298,132,429,534
616,227,209,897,319,140,468,538
571,242,215,923,294,155,499,566
624,241,209,941,310,170,575,576
689,221,234,946,310,202,677,523
666,232,249,917,280,204,661,502
703,223,269,881,276,208,685,501
801,216,330,917,363,226,716,534
735,251,328,802,332,220,709,520
683,252,308,804,330,197,642,479
739,260,328,888,366,192,731,485
791,319,308,929,363,194,756,476
729,345,318,959,330,193,730,430
773,378,318,961,325,199,690,437
777,381,332,1018,353,213,689,531
742,370,312,982,360,200,584,525
580,330,307,973,345,194,634,521
670,296,220,848,298,166,669,544
649,215,210,881,341,160,822,572
664,265,208,887,338,133,827,512
656,292,196,865,308,160,851,496
702,328,220,878,345,148,837,509
647,327,208,827,326,148,806,468
636,337,211,826,277,152,674,434
621,308,203,824,288,169,657,480
617,288,216,919,340,155,630,582
579,257,205,887,328,162,635,564
554,256,268,916,356,165,639,593
639,286,287,932,394,166,593,613
734,272,281,884,379,156,586,602
865,281,269,811,345,152,726,558
922,368,283,909,396,163,745,658
982,384,284,1012,442,168,754,670
944,394,276,1020,413,176,825,668
899,397,307,1072,426,173,881,697
816,399,312,1052,412,188,775,665
824,334,314,1033,344,189,709,588
870,368,266,912,278,184,736,590
877,333,259,861,297,165,706,558
870,341,230,835,273,169,635,532
862,352,227,882,301,162,626,536
824,347,231,793,290,147,599,539
763,335,253,840,294,147,558,498
749,347,262,869,286,151,556,547
817,348,267,858,289,141,621,525
779,337,277,892,282,120,624,502
754,358,258,902,294,125,776,495
727,370,239,872,284,174,881,496
699,372,255,872,286,192,902,453
721,414,242,878,294,194,929,502
769,416,234,841,276,215,928,505
776,387,258,874,364,230,836,520
726,369,291,875,421,199,799,624
738,344,289,951,438,186,755,613
589,284,302,983,445,190,680,584
552,256,294,901,441,176,668,580
504,245,310,963,389,163,674,583
480,209,293,955,324,163,685,496
532,209,277,852,278,154,660,486
646,235,265,764,248,152,671,448
662,237,280,803,245,146,725,481
677,224,242,649,221,135,754,484
748,218,234,655,209,130,653,464
769,244,252,719,258,147,669,511
753,234,277,806,274,165,630,537
747,224,259,773,306,169,578,523
774,240,270,874,326,174,498,506
784,272,252,853,322,177,490,494
794,266,224,836,309,184,502,458
775,254,185,754,295,163,502,471
769,270,190,778,267,158,536,487
739,276,183,708,246,160,562,535
722,244,217,802,281,159,762,627
690,259,257,928,334,137,761,685
696,261,263,946,340,154,819,727
764,268,279,927,343,168,831,727
769,304,266,965,352,153,796,716
784,384,248,966,350,154,665,641
793,366,214,886,301,159,640,567
853,400,254,891,313,151,589,487
825,393,231,897,329,142,559,456
887,357,244,835,340,146,572,410
856,284,269,815,321,133,497,427
822,293,286,750,308,124,517,485
728,228,296,833,394,121,502,494
646,305,306,914,389,125,528,524
535,299,330,957,388,119,577,513
554,287,313,911,396,126,617,501
525,283,295,900,400,135,625,463
515,297,251,830,313,134,599,468
617,207,265,776,291,121,554,449
751,228,264,762,289,123,491,444
776,258,284,885,325,124,451,451
812,270,292,879,329,116,402,438
847,264,297,878,309,118,457,454
840,282,278,883,319,122,484,435
743,300,252,873,324,141,545,493
685,271,241,791,294,142,546,481
687,276,242,844,297,142,583,473
636,282,255,871,303,136,567,455
632,285,284,940,305,143,582,446
685,325,290,954,284,136,538,380
728,339,291,953,270,148,548,425
692,345,300,918,289,148,520,434
687,350,280,843,299,148,521,403
646,340,257,792,317,140,478,431
645,292,241,793,305,133,459,470
594,301,220,757,298,106,431,414
635,272,197,747,250,101,438,405
672,264,235,791,246,111,524,427
665,253,222,737,217,106,560,413
646,248,225,741,242,100,672,390
610,246,239,809,302,108,804,416
675,249,242,840,331,119,805,425
645,274,216,849,342,106,759,396
703,310,263,861,400,141,779,456
729,314,261,820,402,144,683,478
829,328,254,791,370,153,556,457
739,335,258,768,356,142,564,459
776,305,293,855,375,162,605,510
777,273,281,861,314,145,562,449
749,293,272,873,319,150,616,387
678,254,276,851,322,166,619,421
733,274,275,838,322,174,606,437
683,278,265,836,387,156,535,390
603,319,255,862,403,150,516,404
631,318,275,837,389,147,477,461
640,313,267,810,375,121,417,441
583,288,264,874,367,113,378,447
648,313,238,805,280,122,368,465
653,273,218,747,260,129,460,472
575,243,194,721,250,125,466,427
572,260,199,746,250,128,510,414
582,271,196,700,256,130,583,374
565,240,181,697,277,132,638,415
594,233,179,714,259,118,561,392
660,307,177,709,289,121,563,418
640,307,188,739,290,130,523,444
680,326,190,752,311,132,538,432
695,332,233,762,347,156,519,413
735,365,241,766,352,157,520,403
770,308,250,818,341,155,494,378
771,306,231,749,347,138,515,347
720,268,246,745,326,148,479,408
724,262,214,692,232,134,423,364
664,243,213,654,225,142,426,410
557,248,263,753,235,142,472,437
572,248,286,817,250,140,468,422
580,316,300,849,249,131,457,360
553,320,314,880,250,108,471,321
565,339,337,975,295,111,478,278
626,333,315,956,295,121,452,302
574,330,304,913,273,125,451,327
560,257,278,835,270,116,420,340
506,265,271,842,292,113,434,350
509,214,230,705,238,107,454,342
480,233,204,560,206,101,434,308
518,235,189,554,195,106,426,298
525,244,197,717,232,115,435,301
550,273,182,684,211,117,410,286
559,277,194,748,261,109,373,277
508,249,178,732,266,103,348,217
548,233,173,704,272,96,345,194
522,221,136,511,232,86,297,149
472,149,123,455,214,152,290,156
399,135,127,327,144,290,264,158
384,109,216,297,111,331,306,300
205,100,225,250,62,336,274,304
184,110,251,229,56,358,315,357
164,113,359,155,53,389,324,405
175,141,606,200,62,319,314,450
140,146,621,199,59,276,236,401
161,159,668,224,60,273,228,456
185,192,803,280,65,260,159,597
216,202,860,327,64,189,140,642
203,173,814,304,60,191,153,700
208,198,847,348,88,196,153,708
193,192,851,347,92,192,148,674
168,164,771,313,90,174,156,575
127,165,732,317,98,168,159,511
113,174,655,335,99,128,149,403
114,186,657,323,89,118,151,370
124,207,739,312,89,121,156,414
152,200,829,313,91,132,144,491
163,233,917,284,110,116,126,534
180,354,921,279,121,118,150,584
186,369,883,250,117,119,150,618
189,422,848,294,117,113,155,610
174,456,877,402,122,85,170,602
161,468,859,475,117,73,162,607
174,493,1097,597,134,68,139,559
180,527,1175,647,153,76,161,577
176,508,1241,678,163,82,159,576
179,543,1235,644,166,83,152,478
217,563,1202,593,153,81,153,430
215,535,1004,489,127,76,159,434
226,484,965,442,108,65,128,374
260,556,946,420,103,53,130,369
254,518,925,457,114,58,115,396
232,497,909,480,126,69,288,407
241,459,899,468,130,72,296,446
225,480,867,497,142,78,310,469
202,482,884,522,149,77,318,492
199,499,833,528,152,70,321,521
194,511,823,516,154,68,258,550
180,541,865,518,153,75,309,511
168,544,834,513,145,72,331,483
139,439,726,468,136,75,332,449
184,427,714,405,121,78,342,502
189,432,819,421,111,73,290,449
174,395,760,494,120,67,299,513
199,443,917,525,132,66,289,660
199,477,1009,548,130,61,277,668
156,488,1048,647,145,62,263,615
146,454,983,633,153,65,266,632
146,501,1015,617,154,63,172,593
116,450,1008,590,133,57,227,432
139,423,935,557,132,61,251,477
166,555,974,492,129,64,257,538
164,593,1022,492,118,58,263,525
157,568,1003,433,104,59,308,504
166,630,1024,418,113,58,266,541
163,644,1038,473,123,57,259,556
137,518,1006,459,112,53,254,455
136,471,933,507,125,53,253,441
146,476,956,516,127,53,323,469
138,438,825,497,124,56,320,438
120,432,801,449,108,51,331,343
143,462,810,530,123,50,333,354
148,482,786,513,114,53,347,351
140,437,758,537,121,53,271,297
135,383,756,524,117,49,252,270
145,401,747,524,120,52,232,288
126,379,729,399,95,46,276,294
131,363,731,387,92,44,269,337
149,363,787,322,75,44,291,354
150,416,862,352,79,46,294,347
146,440,959,404,83,53,290,333
166,444,989,440,87,61,247,356
163,475,994,424,101,61,220,306
177,508,978,498,144,79,257,368
187,502,996,498,144,79,255,388
188,467,913,458,146,77,258,401
181,505,811,418,147,71,271,477
202,516,836,520,140,71,346,525
192,571,908,568,142,67,277,554
189,599,882,755,165,68,280,571
190,587,926,768,161,66,322,574
175,553,991,797,160,67,317,500
150,532,1044,729,159,67,245,452
131,437,981,658,125,53,236,347
126,371,923,436,94,49,233,377
122,366,927,445,104,48,247,386
139,422,893,416,103,49,238,379
150,417,876,464,107,47,226,412
152,487,912,493,123,50,227,461
146,472,922,513,133,56,229,396
163,503,880,556,153,68,211,453
148,449,852,560,153,65,210,435
141,439,761,520,148,66,220,418
135,357,682,491,134,61,218,377
143,371,690,494,121,63,208,380
120,334,628,420,90,53,126,325
136,369,648,399,99,77,144,479
138,407,772,466,109,84,131,465
140,406,782,446,103,83,124,459
129,397,871,400,105,81,126,463
138,418,872,377,99,80,126,451
133,371,859,368,89,61,90,299
122,318,733,268,73,51,87,325
126,355,798,392,93,57,84,321
135,326,643,389,89,53,75,281
128,311,626,435,90,53,86,338
138,314,697,467,90,49,85,353
134,327,742,482,92,49,76,322
124,284,615,397,73,42,80,316
110,305,648,397,75,45,100,395
100,296,667,361,70,44,77,321
117,297,534,310,59,44,83,297
118,264,564,286,57,44,83,307
117,264,582,299,57,41,81,346
128,257,644,327,72,38,57,263
148,267,660,352,95,51,80,335
117,283,726,372,106,55,78,343
122,319,693,358,106,55,77,335
123,350,792,337,110,57,75,295
115,356,768,331,104,56,75,298
97,345,742,286,87,46,51,204
102,367,680,299,76,39,52,192
114,362,676,317,83,45,60,216
145,432,636,326,90,52,78,321
144,444,640,316,87,54,77,329
144,464,722,416,96,60,118,338
146,434,765,424,97,58,118,343
147,441,822,414,97,59,118,391
144,368,793,406,84,57,107,408
172,362,790,421,86,66,127,441
191,434,842,357,81,61,94,451
186,437,823,320,83,64,90,455
177,428,792,330,72,59,86,398
155,406,758,371,74,56,84,310
124,410,743,372,77,48,56,246
84,325,607,342,73,45,47,217
81,301,626,351,68,41,47,205
91,269,771,346,70,42,65,298
102,310,813,325,70,41,64,286
116,304,836,303,62,37,61,285
120,288,807,306,69,37,61,282
123,314,784,324,82,44,72,272
119,375,670,325,101,57,71,203
130,351,684,322,121,66,82,207
123,346,695,353,129,68,82,202
134,344,744,368,125,68,86,211
182,338,826,409,138,78,123,341
180,288,774,428,130,73,119,326
171,310,744,421,111,65,120,397
170,299,659,391,99,63,123,421
168,393,680,401,103,62,120,417
123,404,615,384,85,45,71,318
122,406,685,388,82,44,71,343
130,452,690,382,85,43,60,257
174,465,709,391,95,46,67,328
196,491,789,455,121,59,93,370
203,517,818,421,120,62,100,478
217,509,802,420,119,58,98,489
217,499,813,428,117,57,103,518
186,503,880,470,112,57,101,491
171,395,823,483,84,41,81,478
168,351,762,470,71,34,79,373
161,353,735,461,63,39,96,432
151,274,769,494,68,44,94,414
143,232,691,444,61,40,84,371
147,255,655,323,55,44,85,368
132,248,649,325,61,45,87,369
126,385,631,361,97,60,84,341
128,408,544,308,99,58,79,339
150,417,603,328,108,63,85,350
147,428,659,347,118,62,85,354
153,429,680,341,117,62,80,352
144,305,680,292,97,47,68,269
155,315,701,382,102,49,74,305
135,346,747,364,91,42,66,294
120,354,694,372,81,41,70,306
122,350,683,374,80,41,72,368
152,369,701,365,74,41,70,381
144,344,655,277,62,38,67,333
156,321,531,297,71,43,68,347
151,280,510,274,63,43,60,306
139,291,538,286,60,40,53,224
105,278,556,326,56,37,46,197
104,266,577,337,57,41,60,206
81,247,608,331,56,37,59,185
80,289,608,325,55,35,59,181
82,299,592,314,62,38,61,186
113,275,549,262,65,42,74,219
113,336,696,253,68,44,71,234
131,371,689,235,60,43,71,235
136,341,741,340,72,47,77,293
147,336,741,355,76,48,83,291
135,409,795,448,86,53,100,311
137,375,744,435,82,48,95,336
120,347,734,494,94,55,97,358
118,392,663,426,92,57,97,354
108,392,715,421,89,57,93,351
118,340,795,350,82,49,61,338
121,359,777,373,86,51,64,356
134,356,826,313,76,48,62,337
130,323,847,336,70,43,57,307
129,304,800,319,68,42,65,337
117,291,671,288,60,40,68,344
113,287,750,255,53,39,60,357
106,305,752,298,69,36,70,369
110,307,844,289,79,40,72,374
112,317,885,302,87,43,65,348
122,340,893,350,90,44,105,398
145,421,819,419,111,51,150,418
171,434,941,421,111,51,177,450
196,440,853,422,107,48,180,460
198,438,801,427,99,43,180,477
193,456,915,393,100,46,162,423
179,437,1008,384,96,42,132,377
156,453,874,322,87,42,88,339
128,456,871,324,84,41,84,326
127,451,904,319,89,46,84,306
119,437,879,348,85,45,86,306
134,369,757,282,60,41,85,344
134,317,730,333,58,43,86,336
127,326,723,352,58,43,85,339
128,344,725,400,62,43,84,340
125,338,682,478,76,45,79,321
97,342,654,492,83,46,60,219
82,329,641,469,82,44,59,223
78,273,609,448,78,43,53,186
67,241,580,432,77,41,49,162
64,188,489,317,61,38,53,195
68,152,465,284,54,48,55,231
88,146,477,283,59,47,58,237
86,139,501,266,60,47,60,239
99,131,458,252,52,47,85,398
112,236,431,250,70,53,89,504
105,234,436,271,73,44,94,521
88,235,381,251,71,42,90,514
88,246,400,251,73,43,90,522
82,252,451,222,75,44,73,436
72,177,424,213,57,35,62,336
88,203,419,179,51,33,56,307
88,205,462,181,45,33,55,299
89,197,435,195,45,34,54,306
93,200,365,212,43,28,50,314
90,217,516,223,45,30,50,271
118,207,539,250,49,33,58,316
122,210,596,241,49,33,58,322
131,261,608,238,52,37,60,374
122,262,610,193,48,37,56,342
118,232,479,190,46,36,52,330
75,250,445,154,43,32,37,262
64,252,368,273,50,33,32,243
41,213,368,271,42,26,26,95
48,217,369,271,40,28,43,125
56,219,394,271,44,30,45,119
73,193,462,317,54,32,46,135
73,177,452,228,49,31,47,133
74,156,407,218,53,30,47,132
70,135,398,216,53,27,32,91
63,127,372,205,50,25,31,106
42,103,259,107,36,20,36,147
41,103,199,89,34,22,36,151
56,103,219,106,30,24,36,153
57,104,266,120,32,23,37,155
58,97,298,136,34,24,41,175
62,88,301,147,36,22,33,123
64,91,296,148,39,23,33,118
53,89,282,130,40,27,33,119
53,87,281,195,48,32,33,131
55,98,247,196,53,34,24,89
50,102,244,195,53,34,25,88
59,98,240,196,52,34,30,146
58,97,238,201,50,29,30,144
56,93,188,126,40,24,30,134
54,87,193,94,31,22,29,133
50,85,193,90,29,24,29,132
40,146,233,103,30,23,22,60
36,153,225,90,27,23,21,54
38,166,222,90,27,23,20,55
40,173,208,119,33,22,29,141
42,173,204,116,34,23,30,148
35,129,130,102,30,23,29,149
37,122,122,104,30,25,31,152
35,109,133,101,30,25,30,151
29,110,119,60,26,25,24,75
28,106,121,49,29,25,22,60
27,101,119,46,30,24,23,52
24,92,130,48,31,22,19,42
26,81,111,48,31,21,18,34
32,53,104,43,28,20,16,23
33,45,128,89,29,18,15,23
34,45,135,96,30,19,17,24
35,42,124,95,31,21,19,22
34,38,122,95,32,24,20,21
26,36,122,96,32,25,20,22
24,36,88,54,29,25,20,19
23,32,95,43,28,27,18,17
20,32,94,39,26,24,18,16
19,34,110,41,26,23,17,16
19,33,111,41,26,23,18,16
25,31,100,60,28,24,20,17
24,31,78,60,29,22,21,18
30,41,87,60,28,24,22,19
29,39,68,58,28,24,21,18
32,38,66,56,27,23,22,17
29,37,62,32,27,23,22,16
28,41,60,29,26,24,21,17
27,32,42,27,27,23,21,16
33,32,39,25,27,23,21,16
32,31,30,23,25,23,18,16
34,52,44,29,22,23,16,16
40,56,43,27,22,23,16,17
38,58,46,29,22,24,14,17
39,58,45,29,24,23,17,19
39,62,46,30,27,23,18,20
38,47,42,45,30,22,20,21
37,45,49,49,33,21,20,21
34,44,46,50,33,19,21,22
31,45,48,52,31,19,20,22
31,41,49,51,30,19,19,20
37,41,40,36,29,20,16,19
35,39,30,30,28,22,19,19
35,39,34,29,28,24,18,18
35,41,62,43,31,24,18,17
185,73,165,141,44,31,35,158
207,111,242,170,45,31,36,167
225,136,276,188,47,34,45,263
311,191,392,221,53,44,62,291
454,440,492,253,58,53,106,443
446,491,678,291,60,51,108,492
449,513,708,334,88,74,125,606
513,531,743,452,123,110,486,721
535,533,745,481,130,115,553,853
434,388,818,504,133,122,571,891
444,325,746,493,132,152,601,915
469,326,761,494,126,152,715,1088
405,294,727,388,103,134,671,1065
330,260,681,346,94,134,734,1083
316,243,662,368,92,152,734,1015
259,235,642,343,94,133,733,983
183,191,611,326,88,127,652,773
146,197,697,354,82,124,530,708
94,203,792,368,85,123,349,495
91,207,812,424,96,98,334,491
91,210,789,422,106,94,293,487
92,188,761,400,111,98,298,430
98,200,789,422,112,104,354,469
100,215,835,451,110,114,374,508
105,179,714,341,102,115,366,591
128,175,688,342,85,148,408,578
143,185,730,351,66,218,369,597
160,186,692,337,61,223,306,570
159,171,613,299,57,219,284,571
163,184,627,322,48,222,318,533
159,186,719,328,50,212,263,538
144,186,672,340,48,139,242,526
129,163,607,301,47,124,240,489
131,156,564,317,49,133,239,456
126,134,544,283,48,139,172,457
131,152,583,323,53,135,244,449
134,148,709,341,52,129,239,416
155,134,699,332,47,131,242,464
158,145,674,295,52,153,250,463
174,158,748,304,58,150,252,449
175,176,816,361,55,132,165,433
193,211,795,329,62,136,180,418
182,220,829,336,67,137,254,368
182,210,809,327,62,106,251,419
170,230,783,325,58,87,256,344
154,211,636,196,56,85,255,348
132,194,573,231,57,82,243,368
124,195,637,235,52,112,235,422
128,195,693,254,51,104,230,413
129,184,773,307,49,110,225,415
130,185,791,325,46,110,228,440
130,159,807,309,39,110,236,504
123,147,756,308,40,79,229,458
116,141,716,307,46,116,256,417
116,112,613,245,56,121,285,534
133,98,515,211,62,125,293,522
130,92,442,199,64,124,357,438
140,123,393,212,65,125,319,481
143,137,482,232,63,87,297,487
143,136,456,246,55,77,268,402
142,144,477,259,53,82,330,414
145,150,515,247,50,89,291,428
139,154,618,254,47,86,285,373
195,205,640,246,76,110,300,386
196,217,632,227,76,122,301,325
186,214,612,219,77,117,215,276
179,212,589,244,81,113,159,228
181,240,574,285,89,114,241,222
115,190,466,266,63,88,229,170
91,181,459,295,66,61,226,152
80,178,462,296,66,56,230,179
78,176,468,269,74,52,229,170
78,135,484,224,73,90,162,170
86,140,508,266,77,154,191,387
88,129,493,228,73,162,192,409
86,120,487,224,70,167,183,406
85,114,459,241,72,168,183,411
68,105,280,226,69,151,151,411
59,133,288,225,73,92,101,213
54,186,388,247,79,74,79,167
90,347,549,300,89,65,87,133
93,365,566,287,80,61,86,111
96,360,554,276,79,57,88,91
92,354,527,235,75,46,65,62
90,336,462,215,68,44,67,53
61,207,430,175,63,39,53,44
54,183,449,193,61,40,43,37
53,179,458,196,55,34,41,32
50,178,460,203,51,34,42,27
48,176,492,243,55,37,40,96
40,130,362,238,43,35,40,100
40,125,332,230,40,29,39,103
46,171,417,230,41,29,38,106
46,168,475,251,41,27,33,106
47,162,445,228,42,26,29,54
44,160,440,200,43,26,26,45
43,159,428,188,41,25,25,38
28,99,329,178,39,22,21,25
24,78,193,128,38,23,20,24
21,64,156,82,35,22,19,22
21,59,123,61,37,20,18,21
22,73,168,59,38,22,24,25
33,152,253,62,41,36,27,28
34,161,261,58,39,40,27,29
35,165,268,55,45,41,28,29
40,176,269,50,43,42,28,29
41,168,236,54,46,43,22,25
33,108,175,115,41,32,19,19
78,104,166,123,43,30,18,22
217,183,306,140,50,48,24,36
230,185,324,142,53,50,24,36
236,192,324,142,51,50,24,37
240,191,316,109,53,56,25,38
233,187,341,151,66,56,27,37
118,122,254,150,59,42,23,27
90,132,229,149,58,40,27,26
78,119,224,148,56,37,28,26
67,120,208,139,55,29,26,24
52,119,156,82,39,25,23,22
46,105,82,77,38,23,23,20
39,69,101,80,42,23,19,21
36,90,212,83,44,27,20,24
34,97,235,82,44,26,22,25
34,97,238,79,42,26,25,26
38,98,239,55,36,25,27,26
42,97,232,45,27,24,27,25
116,97,198,37,31,21,26,29
127,103,176,37,34,21,27,31
143,103,177,41,35,22,35,33
202,111,177,50,65,50,129,123
203,118,173,94,76,56,155,142
179,113,107,106,76,56,159,143
176,97,95,107,78,56,178,173
197,103,81,108,79,58,245,318
146,100,76,141,64,96,347,381
154,107,72,151,70,106,371,398
158,103,66,178,80,107,379,406
158,106,64,184,79,110,373,397
154,104,66,190,80,116,361,387
216,104,73,233,115,92,330,476
231,133,72,326,183,103,329,496
271,200,91,482,241,116,356,537
305,222,155,563,334,119,390,645
328,241,168,595,352,123,403,684
392,253,171,630,359,138,361,698
457,283,187,625,338,127,404,695
501,290,227,650,322,129,410,709
726,360,209,652,238,163,446,730
816,364,233,668,225,193,484,721
797,370,237,684,223,202,522,689
843,346,250,785,230,211,515,713
898,372,237,722,219,238,610,766
795,347,245,750,251,236,601,801
834,413,254,810,257,214,660,799
854,410,294,796,273,203,753,790
852,432,363,897,375,215,750,760
851,411,379,1004,396,214,713,743
867,390,380,1032,413,197,799,649
819,326,380,1028,453,208,777,685
931,359,376,1061,476,218,686,686
971,336,301,966,406,208,680,690
925,363,276,903,388,196,689,621
956,351,290,955,384,209,574,567
940,346,285,985,384,232,500,459
870,332,339,1122,418,223,470,416
765,360,376,1149,435,238,585,534
818,314,398,1179,523,238,564,592
791,331,382,1116,513,235,611,709
856,321,368,1093,494,200,619,715
852,296,311,997,450,189,694,752
910,266,288,958,424,162,619,681
890,257,378,995,439,148,611,722
886,305,386,1024,436,128,550,630
793,306,379,997,421,134,550,623
778,308,371,944,423,159,506,584
699,331,376,945,464,169,514,601
673,350,292,898,431,209,511,546
671,287,288,830,425,210,575,536
717,309,313,844,420,216,564,542
746,315,317,914,436,206,502,536
785,308,328,932,488,216,510,508
794,289,285,861,426,170,533,428
745,300,276,864,444,164,486,418
671,275,275,807,440,154,472,413
560,266,353,647,395,180,480,388
494,278,601,504,268,327,416,559
413,282,699,427,218,345,352,656
317,265,821,345,145,365,308,670
276,270,867,324,136,392,312,669
252,262,931,314,126,393,282,658
221,253,900,304,109,271,261,581
172,265,970,320,113,246,194,512
146,265,908,321,114,215,162,469
144,290,1027,374,105,155,123,432
125,329,1160,446,103,103,113,408
106,312,1146,435,94,83,83,274
99,328,1148,480,118,85,89,144
92,317,1168,471,108,85,91,125
97,292,1064,451,122,84,90,115
92,251,867,394,123,82,83,109
85,217,804,374,120,79,71,102
65,135,691,282,89,63,66,73
68,167,660,278,94,63,67,175
51,192,723,260,78,52,65,176
53,187,676,243,63,49,60,182
53,191,653,234,63,42,56,184
58,206,624,280,64,41,38,183
54,193,589,266,56,35,35,110
51,149,433,240,47,34,33,116
56,141,455,220,45,29,40,138
69,157,465,244,50,30,54,143
74,139,422,203,46,29,55,151
75,126,386,199,45,27,52,138
93,122,412,188,42,30,83,187
100,139,409,184,42,34,95,215
97,122,398,154,39,38,93,216
89,117,393,121,32,37,94,219
90,112,440,133,32,36,96,220
72,145,436,129,34,35,79,193
75,128,406,135,37,33,71,167
79,136,366,135,35,29,75,176
82,145,418,196,40,31,78,170
88,160,436,199,40,32,75,203
92,131,407,207,39,33,69,190
95,166,432,219,41,34,62,190
91,156,461,223,40,32,56,193
104,175,518,227,49,44,56,254
100,173,471,222,49,45,60,287
67,31,24,71,43,41,148,349
57,40,24,67,40,41,154,364
69,41,26,104,43,40,153,379
71,38,25,107,42,40,153,380
82,38,24,116,43,39,160,419
94,39,28,121,44,45,173,385
95,42,29,120,44,46,172,394
90,44,27,100,41,47,178,401
108,44,28,105,52,47,182,414
149,59,29,94,52,49,185,408
150,59,24,86,49,34,128,345
229,59,29,130,60,44,228,491
241,60,33,134,64,43,238,494
237,61,33,127,54,44,236,486
216,49,32,133,57,42,233,491
210,48,33,137,59,43,242,505
131,39,28,100,48,32,149,363
109,38,24,95,41,31,132,343
113,60,29,103,43,30,138,350
216,63,29,95,39,32,149,404
239,65,28,108,42,28,129,453
235,66,28,134,56,28,125,461
249,67,32,139,61,29,123,482
270,96,30,140,58,31,134,531
200,121,42,140,58,27,111,470
215,136,50,132,54,26,133,485
258,158,54,107,46,36,158,588
261,169,65,92,42,43,179,577
248,158,66,83,43,42,177,652
314,148,67,86,46,52,229,747
299,155,75,76,47,57,237,710
265,151,79,60,39,51,226,611
257,150,98,53,36,49,213,620
249,230,155,54,41,51,204,494
171,247,159,50,37,44,144,337
148,256,158,44,33,38,97,272
147,250,173,46,34,37,86,257
137,274,182,49,34,33,68,210
166,250,167,43,27,30,56,175
139,236,163,39,27,28,48,103
133,227,169,39,28,29,43,86
128,239,176,37,25,27,39,85
120,223,179,30,24,28,38,98
62,181,155,29,30,31,43,127
69,215,179,33,33,43,54,165
158,226,212,55,41,46,96,255
188,236,209,96,65,55,131,323
232,228,192,102,72,71,210,456
273,232,190,125,72,84,267,557
298,216,179,145,83,85,280,617
286,261,183,145,83,86,284,653
281,266,174,123,68,88,288,660
270,267,193,119,63,85,300,656
275,268,204,100,61,81,288,619
270,306,216,87,45,81,301,580
304,292,180,125,72,87,323,675
321,278,178,170,155,92,322,670
368,284,155,209,167,101,345,661
385,299,144,241,174,116,373,673
413,250,110,271,181,119,377,710
379,229,113,351,190,120,356,710
380,229,131,423,166,123,456,855
427,227,146,429,175,113,417,920
395,201,144,468,190,98,387,1037
467,203,146,569,224,102,393,1066
549,183,139,578,226,102,415,1136
611,198,131,544,240,93,298,1217
584,189,127,541,234,90,290,1192
615,190,128,551,232,84,273,1125
580,192,125,515,225,89,259,1172
566,200,126,474,215,81,234,1139
527,176,109,482,191,87,230,978
528,175,100,637,237,102,245,1030
560,198,125,673,254,113,256,1081
572,189,135,624,240,111,263,1082
549,173,131,612,249,112,260,1083
529,182,140,631,254,113,268,1169
593,178,134,509,259,111,305,1165
606,192,114,465,298,112,308,1136
611,202,119,511,365,121,340,1119
650,197,116,513,364,126,353,1070
658,199,140,619,468,137,453,1154
606,217,162,670,471,129,432,1162
696,293,220,803,508,161,647,1281
748,339,231,870,522,148,655,1318
817,377,234,951,578,156,669,1381
913,398,239,970,569,163,741,1300
959,477,279,1015,631,198,919,1420
920,441,260,999,603,181,820,1421
997,416,272,998,618,190,850,1542
1062,429,284,957,577,188,862,1528
1057,424,285,905,521,185,772,1531
1144,333,243,847,468,171,554,1464
1190,332,220,747,431,168,629,1460
1196,374,188,794,385,171,600,1386
1159,409,199,812,378,173,620,1464
1168,479,187,831,374,174,636,1483
1046,498,196,900,320,160,652,1399
976,491,196,1063,398,156,535,1350
1020,492,210,1093,457,172,556,1362
997,479,287,1175,514,188,633,1377
1013,452,304,1172,553,193,690,1349
1082,492,318,1147,593,207,724,1371
1128,520,337,1118,551,208,724,1285
1027,510,342,1038,493,187,669,1156
1025,467,265,991,448,194,652,1016
982,410,240,1016,452,181,589,1009
950,412,241,1048,491,177,532,1111
930,434,251,954,516,175,549,1145
845,437,238,1082,632,212,597,1201
730,444,238,1063,653,195,477,1165
661,450,252,994,613,193,446,1114
637,380,229,945,547,177,439,1018
621,303,208,1011,607,178,479,1045
631,263,203,837,457,133,437,979
630,231,198,738,407,118,424,961
681,222,174,724,389,114,420,939
601,205,154,672,380,112,398,886
478,195,118,451,198,90,292,759
437,150,211,365,179,77,248,639
423,137,233,360,152,62,234,571
245,110,280,318,146,48,173,622
252,116,439,340,108,63,173,534
259,208,710,443,99,74,162,530
259,220,742,461,92,77,150,523
253,220,738,470,88,78,141,467
236,221,755,470,87,75,129,261
185,224,781,430,93,61,105,217
166,191,806,446,96,51,96,180
199,236,915,513,114,58,89,204
205,274,1033,529,122,58,87,283
213,278,1038,544,128,62,109,381
243,349,1112,591,149,73,114,424
227,331,1066,511,141,70,113,457
186,304,1020,482,130,63,108,449
214,320,1025,485,125,64,104,535
248,366,1021,524,124,64,105,520
239,380,977,483,90,55,103,539
230,424,911,515,87,54,109,567
253,474,933,477,84,54,123,611
245,478,932,468,88,56,123,524
232,484,993,407,87,51,103,524
274,438,938,345,90,49,117,490
288,446,1000,297,92,55,122,450
311,482,1082,338,111,66,174,442
306,518,1047,349,116,70,192,509
292,549,1020,395,122,74,192,475
242,574,1067,436,123,77,192,507
226,587,1184,541,129,75,186,519
190,537,1061,503,109,66,129,511
177,520,1103,508,100,62,104,460
187,507,1153,480,87,59,112,499
186,531,1181,499,79,52,101,466
207,499,1080,404,70,52,119,499
180,508,1104,425,72,51,138,476
174,542,1028,429,76,47,139,474
155,531,986,438,77,45,146,439
144,532,1090,442,96,53,147,425
112,540,1054,556,105,56,136,410
127,528,1068,558,104,55,124,475
130,457,1114,546,107,61,131,451
130,446,1180,557,112,67,135,432
148,399,983,520,96,61,206,429
165,389,941,413,88,58,225,427
171,379,870,461,94,59,227,343
176,415,812,465,96,59,232,333
180,427,740,453,88,52,222,330
172,416,788,509,93,54,231,406
172,405,756,493,86,52,213,406
158,430,849,512,86,49,221,405
149,379,818,502,75,41,213,422
145,352,759,515,75,43,215,442
148,369,746,508,67,41,139,434
141,385,836,533,72,41,131,383
172,383,756,496,74,45,111,394
168,392,787,507,78,45,101,379
167,403,832,534,81,44,99,354
151,377,799,501,76,41,92,272
137,353,781,468,82,45,96,228
91,312,754,439,73,40,87,183
92,303,712,431,69,41,98,142
80,268,653,354,67,38,95,134
88,303,781,322,74,42,89,246
75,290,666,308,63,36,98,251
73,289,709,275,63,35,95,267
72,291,722,241,60,33,83,264
71,263,679,258,57,31,77,262
271,225,464,227,43,23,84,158
296,254,492,186,43,27,74,150
298,240,390,183,41,27,75,102
303,226,325,166,41,30,70,91
310,234,336,154,70,33,72,88
181,201,342,157,79,34,76,63
229,128,257,151,84,31,72,42
237,117,255,151,109,35,70,38
239,122,295,248,111,32,69,37
244,107,269,236,96,31,90,38
352,148,262,238,94,35,76,44
336,155,262,234,91,39,77,44
346,176,251,231,59,37,75,63
344,195,201,125,58,37,85,64
342,201,231,184,82,39,78,65
270,187,235,192,84,40,79,63
321,191,270,185,84,41,104,120
393,190,277,182,84,44,146,268
402,179,329,233,95,44,146,281
401,178,315,210,83,42,138,284
370,173,311,228,84,40,139,287
325,201,312,241,93,37,138,296
211,194,306,272,101,41,164,362
192,187,251,234,91,44,177,395
210,174,214,245,87,45,178,398
216,168,206,222,84,44,189,434
164,121,165,240,89,52,204,555
173,115,194,209,91,55,170,619
212,109,168,202,91,53,157,606
198,148,156,172,91,52,162,619
220,172,158,243,120,54,178,641
248,192,143,221,119,52,199,642
248,188,110,238,123,45,220,540
227,192,128,269,130,51,224,538
240,177,130,273,130,53,237,575
221,151,123,222,112,54,232,583
194,123,124,223,117,55,231,589
252,132,120,240,117,62,223,617
263,157,96,223,115,65,230,619
265,151,95,245,126,63,220,638
295,167,94,247,118,63,214,644
382,181,94,303,136,73,233,730
354,177,105,289,140,71,214,697
359,171,112,300,143,67,215,729
388,223,163,293,144,76,222,766
393,239,175,290,149,85,243,758
347,248,175,228,124,73,198,608
354,266,166,220,127,77,213,666
369,269,164,219,138,86,220,764
336,228,137,253,134,83,250,753
308,210,143,254,137,82,259,883
293,197,139,293,145,87,285,1052
306,175,140,291,132,82,281,1036
309,150,142,300,128,74,269,985
327,170,127,275,120,71,234,991
356,217,134,307,125,69,242,982
350,232,152,297,124,69,214,861
345,230,152,315,131,65,217,876
322,238,148,290,117,77,250,881
318,230,138,274,120,77,274,935
300,189,132,225,110,69,235,836
299,176,120,270,135,66,243,804
274,176,114,249,136,70,234,810
308,164,114,271,139,54,199,830
282,155,122,271,135,57,169,739
276,142,94,275,129,58,165,793
317,130,83,192,90,69,162,859
323,126,79,205,94,76,169,835
275,135,75,169,89,77,164,787
291,146,63,172,90,72,159,868
281,147,62,166,92,72,154,797
203,135,56,175,93,60,141,730
240,130,56,147,77,47,139,816
265,141,55,142,75,52,174,912
250,131,51,164,79,49,172,800
269,116,59,182,75,54,172,808
290,113,56,190,75,52,161,795
259,116,57,220,77,49,151,700
238,94,57,221,76,46,113,609
228,82,59,194,70,46,110,612
194,80,50,178,69,40,103,595
166,78,48,154,59,38,97,560
200,79,46,103,49,35,88,507
189,74,44,96,47,36,73,496
195,64,47,93,45,35,68,498
191,66,59,92,46,33,78,532
214,72,60,102,45,31,71,484
211,95,65,98,41,31,79,516
263,96,68,92,37,27,87,537
257,96,65,103,51,27,97,602
257,96,53,119,65,27,91,541
236,103,62,128,69,31,96,552
227,79,64,131,70,33,94,518
168,90,65,132,74,31,81,416
169,101,84,135,66,31,70,347
191,101,102,142,65,30,86,368
185,90,105,129,61,29,80,358
151,87,105,126,60,26,76,352
146,68,105,125,55,23,76,342
192,58,95,108,52,25,73,235
164,57,83,61,31,24,49,201
165,57,76,54,27,22,45,182
158,54,71,55,25,21,33,173
158,62,83,54,24,20,32,146
134,63,79,51,22,19,28,148
138,63,73,47,23,19,25,137
136,68,75,42,21,20,25,133
132,67,76,34,21,21,25,137
119,58,62,29,20,21,22,93
62,47,57,28,23,20,20,76
109,48,54,25,24,20,20,71
110,37,47,25,24,18,18,61
112,45,46,27,23,18,18,39
112,47,42,47,30,18,18,27
111,47,43,60,34,18,17,25
52,40,39,64,35,17,19,38
45,46,39,65,35,19,18,63
33,43,37,66,36,18,17,64
31,44,39,57,32,19,17,65
26,49,37,43,27,18,18,67
20,48,41,38,27,19,17,59
20,45,45,38,30,18,16,32
20,40,43,36,28,21,16,28
19,36,49,37,27,20,15,26
19,36,53,51,27,20,15,28
21,37,53,54,27,21,17,26
20,36,50,52,22,20,17,24
19,43,49,52,21,19,18,24
20,43,41,49,21,20,19,22
20,42,34,35,21,21,18,17
17,41,32,32,21,19,16,19
18,38,26,37,21,21,16,19
18,30,29,47,24,22,15,18
17,29,42,50,24,22,16,18
19,26,43,52,24,20,16,18
20,24,43,49,21,22,17,17
19,23,44,46,21,21,16,19
19,23,43,35,19,20,16,17
19,26,30,29,20,19,17,19
17,20,26,26,21,19,18,19
15,23,27,27,22,17,17,18
18,24,30,28,21,17,18,17
19,32,37,27,24,17,21,17
19,30,38,27,25,18,20,14
20,31,40,27,25,17,19,15
25,31,42,35,26,19,19,17
23,31,40,40,29,20,19,16
24,25,34,46,27,20,15,17
25,27,38,47,25,20,18,18
27,28,41,46,25,20,19,18
23,26,39,39,25,22,19,16
24,36,40,34,21,22,21,16
24,35,40,25,20,23,21,14
25,34,36,33,24,22,20,14
20,37,36,41,30,22,19,12
20,39,39,48,30,20,19,13
19,30,41,48,31,19,17,13
18,39,45,53,33,18,18,15
23,68,112,60,34,21,21,22
24,79,125,57,33,21,21,24
24,81,124,55,33,21,22,24
25,83,124,57,33,21,22,25
25,81,125,53,33,22,21,24
19,61,74,41,31,20,37,17
21,65,82,37,28,20,56,18
22,64,83,37,28,20,60,17
21,62,82,38,28,19,62,15
20,63,85,38,27,18,63,17
21,65,83,38,25,17,55,17
24,63,125,41,24,20,35,21
25,67,129,36,24,19,43,21
25,69,136,32,24,20,61,24
26,68,137,42,26,21,63,24
26,64,137,48,28,20,64,23
22,49,77,47,28,18,65,20
21,43,67,48,28,19,56,20
20,43,56,48,27,19,33,18
20,47,54,40,25,17,27,18
20,49,53,35,25,19,23,19
19,47,50,33,26,18,21,18
19,48,53,34,25,19,20,17
22,50,51,40,26,18,18,18
22,45,46,42,29,20,20,20
20,43,45,40,27,19,19,21
21,44,48,40,26,20,19,21
21,43,51,38,27,20,56,21
20,35,47,31,26,20,59,20
22,39,47,25,24,20,60,19
22,44,44,26,23,21,60,17
23,40,41,28,22,19,62,17
