0.46814404432132967,0.10697674418604651,0.20230263157894737,0.31895424836601305,0.41386554621848737,1,R,asd
0.44598337950138506,0.10697674418604651,0.20230263157894737,0.31895424836601305,0.40021008403361347,1,R,asd
0.4182825484764543,0.04186046511627907,0.17927631578947367,0.2823529411764706,0.3707983193277311,1,R,asd
0.3656509695290859,0.037209302325581395,0.16447368421052633,0.2679738562091503,0.2867647058823529,1,R,asd
0.3296398891966759,0.05116279069767442,0.14638157894736842,0.2326797385620915,0.22373949579831934,1,R,asd
0.29362880886426596,0.06976744186046512,0.10032894736842106,0.21568627450980393,0.22058823529411764,1,R,asd
0.24376731301939059,0.08372093023255814,0.09210526315789473,0.21437908496732025,0.29096638655462187,1,R,asd
0.2299168975069252,0.08372093023255814,0.09046052631578948,0.2065359477124183,0.2762605042016807,1,R,asd
0.2188365650969529,0.10232558139534884,0.09210526315789473,0.20130718954248367,0.2668067226890756,1,R,asd
0.20221606648199447,0.12093023255813953,0.08881578947368421,0.1830065359477124,0.22373949579831934,1,R,asd
0.1994459833795014,0.16744186046511628,0.08223684210526316,0.16732026143790849,0.17647058823529413,1,R,asd
0.20498614958448755,0.20930232558139536,0.08388157894736842,0.16470588235294117,0.16806722689075632,1,R,asd
0.21052631578947367,0.2372093023255814,0.08717105263157894,0.16993464052287582,0.27521008403361347,1,R,asd
0.21606648199445982,0.2744186046511628,0.11513157894736842,0.2065359477124183,0.30987394957983194,1,R,asd
0.25761772853185594,0.2651162790697674,0.13322368421052633,0.24313725490196078,0.3445378151260504,1,R,asd
0.3628808864265928,0.25116279069767444,0.14967105263157895,0.3202614379084967,0.4327731092436975,1,R,asd
0.43490304709141275,0.2744186046511628,0.12006578947368421,0.3843137254901961,0.4569327731092437,1,R,asd
0.6592797783933518,0.25116279069767444,0.12828947368421054,0.41045751633986927,0.4884453781512605,1,R,asd
0.7506925207756233,0.21395348837209302,0.13322368421052633,0.4130718954248366,0.4957983193277311,1,R,asd
0.8753462603878116,0.13953488372093023,0.11513157894736842,0.396078431372549,0.4831932773109244,1,R,asd
0.9806094182825484,0.17209302325581396,0.11348684210526316,0.34901960784313724,0.4222689075630252,1,R,asd
1.0,0.22325581395348837,0.10032894736842106,0.2980392156862745,0.34663865546218486,1,R,asd
1.0,0.2744186046511628,0.08388157894736842,0.2758169934640523,0.32983193277310924,1,R,asd
1.0,0.2651162790697674,0.0805921052631579,0.2496732026143791,0.31407563025210083,1,R,asd
1.0,0.20930232558139536,0.07401315789473684,0.23529411764705882,0.3088235294117647,1,R,asd
0.9748743718592965,0.14883720930232558,0.08388157894736842,0.23137254901960785,0.3224789915966387,1,R,asd
0.8894472361809045,0.11627906976744186,0.12664473684210525,0.24313725490196078,0.35714285714285715,1,R,asd
0.8366834170854272,0.12093023255813953,0.16611842105263158,0.3058823529411765,0.3907563025210084,1,R,asd
0.7160804020100503,0.17674418604651163,0.17927631578947367,0.3464052287581699,0.47794117647058826,1,R,asd
0.6633165829145728,0.22790697674418606,0.17763157894736842,0.4339869281045752,0.5483193277310925,1,R,asd
0.5577889447236181,0.31627906976744186,0.17927631578947367,0.47581699346405226,0.5672268907563025,1,R,asd
0.4221105527638191,0.35348837209302325,0.1875,0.5477124183006536,0.6029411764705882,1,R,asd
0.3944723618090452,0.3488372093023256,0.20888157894736842,0.6392156862745098,0.6460084033613446,1,R,asd
0.36180904522613067,0.29767441860465116,0.2944078947368421,0.6692810457516339,0.6680672268907563,1,R,asd
0.3391959798994975,0.26976744186046514,0.3223684210526316,0.7098039215686275,0.6628151260504201,1,R,asd
0.32160804020100503,0.25116279069767444,0.3684210526315789,0.7071895424836602,0.6334033613445378,1,R,asd
0.27889447236180903,0.33488372093023255,0.38651315789473684,0.6862745098039216,0.5399159663865546,1,R,asd
0.26884422110552764,0.3813953488372093,0.4375,0.6169934640522876,0.48214285714285715,1,R,asd
0.23366834170854273,0.3302325581395349,0.46381578947368424,0.5633986928104575,0.43487394957983194,1,R,asd
0.18341708542713567,0.24651162790697675,0.4605263157894737,0.44836601307189544,0.38130252100840334,1,R,asd
0.16080402010050251,0.2186046511627907,0.4440789473684211,0.39215686274509803,0.2815126050420168,1,R,asd
0.23366834170854273,0.11627906976744186,0.40625,0.3790849673202614,0.23109243697478993,1,R,asd
0.5552763819095478,0.08837209302325581,0.3815789473684211,0.3607843137254902,0.18592436974789917,1,R,asd
0.6582914572864321,0.08372093023255814,0.34539473684210525,0.34901960784313724,0.18382352941176472,1,R,asd
0.8090452261306532,0.10697674418604651,0.32730263157894735,0.3477124183006536,0.19747899159663865,1,R,asd
0.9221105527638191,0.12558139534883722,0.29276315789473684,0.3333333333333333,0.21638655462184875,1,R,asd
0.9673366834170855,0.13488372093023257,0.26480263157894735,0.31633986928104574,0.22899159663865545,1,R,asd
0.9422110552763819,0.13953488372093023,0.25493421052631576,0.31633986928104574,0.27205882352941174,1,R,asd
0.8693467336683417,0.14418604651162792,0.24835526315789475,0.3660130718954248,0.3697478991596639,1,R,asd
0.7663316582914573,0.10697674418604651,0.24671052631578946,0.39869281045751637,0.38340336134453784,1,R,asd
0.6984924623115578,0.07441860465116279,0.24671052631578946,0.465359477124183,0.43907563025210083,1,R,asd
0.6633165829145728,0.10232558139534884,0.29605263157894735,0.5372549019607843,0.47794117647058826,1,R,asd
0.6507537688442211,0.24651162790697675,0.35526315789473684,0.5555555555555556,0.5388655462184874,1,R,asd
0.628140703517588,0.3209302325581395,0.3980263157894737,0.5895424836601307,0.5892857142857143,1,R,asd
0.6180904522613065,0.4046511627906977,0.48026315789473684,0.6248366013071895,0.6050420168067226,1,R,asd
0.6055276381909548,0.4186046511627907,0.5082236842105263,0.6483660130718955,0.634453781512605,1,R,asd
0.6105527638190955,0.4232558139534884,0.5740131578947368,0.7111111111111111,0.6691176470588235,1,R,asd
0.6331658291457286,0.4325581395348837,0.6726973684210527,0.7542483660130719,0.6901260504201681,1,R,asd
0.6557788944723618,0.4372093023255814,0.7220394736842105,0.8366013071895425,0.7384453781512605,1,R,asd
0.6608040201005025,0.4418604651162791,0.787828947368421,0.8823529411764706,0.7699579831932774,1,R,asd
0.6884422110552764,0.44651162790697674,0.8240131578947368,0.8928104575163399,0.7804621848739496,1,R,asd
0.6934673366834171,0.4418604651162791,0.8305921052631579,0.9019607843137255,0.7888655462184874,1,R,asd
0.7211055276381909,0.413953488372093,0.8157894736842105,0.8901960784313725,0.7857142857142857,1,R,asd
0.7587939698492462,0.386046511627907,0.7384868421052632,0.873202614379085,0.7563025210084033,1,R,asd
0.8065326633165829,0.37209302325581395,0.6743421052631579,0.7986928104575164,0.6775210084033614,1,R,asd
0.8140703517587939,0.3627906976744186,0.5394736842105263,0.6666666666666666,0.625,1,R,asd
0.8040201005025126,0.3209302325581395,0.47368421052631576,0.6013071895424836,0.5220588235294118,1,R,asd
0.7839195979899497,0.25116279069767444,0.3881578947368421,0.526797385620915,0.4569327731092437,1,R,asd
0.7512562814070352,0.12093023255813953,0.3503289473684211,0.5032679738562091,0.43487394957983194,1,R,asd
0.7587939698492462,0.037209302325581395,0.33223684210526316,0.4588235294117647,0.4054621848739496,1,R,asd
0.7814070351758794,0.027906976744186046,0.3092105263157895,0.41045751633986927,0.3245798319327731,1,R,asd
0.8291457286432161,0.10697674418604651,0.30098684210526316,0.39215686274509803,0.2857142857142857,1,R,asd
0.8844221105527639,0.13488372093023257,0.2993421052631579,0.37254901960784315,0.2657563025210084,1,R,asd
0.8919597989949749,0.15813953488372093,0.29276315789473684,0.3673202614379085,0.2815126050420168,1,R,asd
0.8542713567839196,0.14883720930232558,0.28618421052631576,0.3738562091503268,0.34978991596638653,1,R,asd
0.8341708542713567,0.13488372093023257,0.28125,0.4,0.36554621848739494,1,R,asd
0.8015075376884422,0.08372093023255814,0.2746710526315789,0.46405228758169936,0.3792016806722689,1,R,asd
0.7537688442211056,0.07906976744186046,0.26644736842105265,0.4954248366013072,0.453781512605042,1,R,asd
0.7261306532663316,0.08837209302325581,0.2845394736842105,0.5424836601307189,0.5042016806722689,1,R,asd
0.6683417085427136,0.18604651162790697,0.3355263157894737,0.5843137254901961,0.5514705882352942,1,R,asd
0.5678391959798995,0.23255813953488372,0.375,0.6679738562091503,0.6439075630252101,1,R,asd
0.5175879396984925,0.2930232558139535,0.40789473684210525,0.6967320261437908,0.6638655462184874,1,R,asd
0.4371859296482412,0.3023255813953488,0.4095394736842105,0.7032679738562092,0.6785714285714286,1,R,asd
0.3844221105527638,0.3023255813953488,0.4029605263157895,0.7071895424836602,0.6743697478991597,1,R,asd
0.34673366834170855,0.27906976744186046,0.35526315789473684,0.677124183006536,0.6533613445378151,1,R,asd
0.2989949748743719,0.26046511627906976,0.32401315789473684,0.6418300653594772,0.5640756302521008,1,R,asd
0.2613065326633166,0.2558139534883721,0.2746710526315789,0.5189542483660131,0.5042016806722689,1,R,asd
0.16834170854271358,0.2837209302325581,0.21546052631578946,0.4718954248366013,0.46743697478991597,1,R,asd
0.10050251256281408,0.30697674418604654,0.20065789473684212,0.39738562091503266,0.3760504201680672,1,R,asd
0.08040201005025126,0.30697674418604654,0.19736842105263158,0.34901960784313724,0.33718487394957986,1,R,asd
0.05527638190954774,0.2837209302325581,0.17927631578947367,0.3241830065359477,0.33403361344537813,1,R,asd
0.04271356783919598,0.27906976744186046,0.17434210526315788,0.2954248366013072,0.25735294117647056,1,R,asd
0.04020100502512563,0.2651162790697674,0.1611842105263158,0.2758169934640523,0.21743697478991597,1,R,asd
0.035175879396984924,0.2558139534883721,0.15460526315789475,0.269281045751634,0.1796218487394958,1,R,asd
0.032663316582914576,0.2558139534883721,0.14144736842105263,0.25098039215686274,0.16491596638655462,1,R,asd
0.032663316582914576,0.25116279069767444,0.12828947368421054,0.23529411764705882,0.15966386554621848,1,R,asd
0.03015075376884422,0.23255813953488372,0.12335526315789473,0.23006535947712417,0.15336134453781514,1,R,asd
0.03768844221105527,0.22790697674418606,0.11513157894736842,0.2222222222222222,0.15336134453781514,1,R,asd
0.05778894472361809,0.21395348837209302,0.1069078947368421,0.21830065359477124,0.15546218487394958,1,R,asd
0.06030150753768844,0.20930232558139536,0.10526315789473684,0.21176470588235294,0.15441176470588236,1,R,asd
0.05025125628140704,0.19069767441860466,0.10032894736842106,0.20915032679738563,0.15126050420168066,1,R,asd
0.06030150753768844,0.15813953488372093,0.10197368421052631,0.20915032679738563,0.14600840336134455,1,R,asd
0.07537688442211055,0.15348837209302327,0.10361842105263158,0.20915032679738563,0.14495798319327732,1,R,asd
0.08793969849246232,0.15348837209302327,0.09868421052631579,0.20784313725490197,0.14495798319327732,1,R,asd
0.0829145728643216,0.13953488372093023,0.09703947368421052,0.2065359477124183,0.14180672268907563,1,R,asd
0.08542713567839195,0.13023255813953488,0.09703947368421052,0.20392156862745098,0.13655462184873948,1,R,asd
0.09798994974874371,0.12558139534883722,0.09868421052631579,0.20392156862745098,0.13445378151260504,1,R,asd
0.09798994974874371,0.13023255813953488,0.09868421052631579,0.20261437908496732,0.13445378151260504,1,R,asd
0.08793969849246232,0.13023255813953488,0.09703947368421052,0.20261437908496732,0.13445378151260504,1,R,asd
0.0829145728643216,0.12093023255813953,0.09703947368421052,0.20261437908496732,0.13445378151260504,1,R,asd
0.08793969849246232,0.10697674418604651,0.09703947368421052,0.20130718954248367,0.1323529411764706,1,R,asd
0.08542713567839195,0.08372093023255814,0.09868421052631579,0.2,0.1323529411764706,1,R,asd
0.11557788944723618,0.07906976744186046,0.10526315789473684,0.20130718954248367,0.1334033613445378,1,R,asd
0.13316582914572864,0.06976744186046512,0.10197368421052631,0.20392156862745098,0.13655462184873948,1,R,asd
0.135678391959799,0.05116279069767442,0.10197368421052631,0.20392156862745098,0.13760504201680673,1,R,asd
0.19095477386934673,0.06511627906976744,0.10361842105263158,0.20261437908496732,0.13865546218487396,1,R,asd
0.2613065326633166,0.06046511627906977,0.1069078947368421,0.20392156862745098,0.1407563025210084,1,R,asd
0.36683417085427134,0.05116279069767442,0.1118421052631579,0.20392156862745098,0.14285714285714285,1,R,asd
0.31909547738693467,0.046511627906976744,0.11348684210526316,0.20522875816993463,0.14390756302521007,1,R,asd
0.32160804020100503,0.05581395348837209,0.11019736842105263,0.20392156862745098,0.14390756302521007,1,R,asd
0.37185929648241206,0.05116279069767442,0.11019736842105263,0.20392156862745098,0.14390756302521007,1,R,asd
0.41959798994974873,0.05116279069767442,0.10855263157894737,0.20392156862745098,0.14390756302521007,1,R,asd
0.4296482412060301,0.05116279069767442,0.10855263157894737,0.20392156862745098,0.14390756302521007,1,R,asd
0.4396984924623116,0.05116279069767442,0.10855263157894737,0.20261437908496732,0.14285714285714285,1,R,asd
0.4371859296482412,0.046511627906976744,0.10526315789473684,0.2,0.14390756302521007,1,R,asd
0.46984924623115576,0.027906976744186046,0.10032894736842106,0.19738562091503267,0.14285714285714285,1,R,asd
0.5376884422110553,0.023255813953488372,0.09868421052631579,0.19738562091503267,0.14180672268907563,1,R,asd
0.592964824120603,0.023255813953488372,0.09210526315789473,0.1934640522875817,0.13550420168067226,1,R,asd
0.7135678391959799,0.009302325581395349,0.07894736842105263,0.1895424836601307,0.12815126050420167,1,R,asd
0.7562814070351759,0.0,0.07236842105263158,0.18562091503267975,0.13550420168067226,1,R,asd
0.7914572864321608,0.0,0.06578947368421052,0.17908496732026144,0.19117647058823528,1,R,asd
0.8668341708542714,0.0,0.05263157894736842,0.17516339869281045,0.24894957983193278,1,R,asd
0.907035175879397,0.0,0.047697368421052634,0.16993464052287582,0.25630252100840334,1,R,asd
0.907035175879397,0.013761467889908258,0.044407894736842105,0.17124183006535948,0.25315126050420167,1,R,asd
0.8944723618090452,0.013761467889908258,0.044407894736842105,0.17124183006535948,0.22373949579831934,1,R,asd
0.8894472361809045,0.01834862385321101,0.04276315789473684,0.16601307189542483,0.19642857142857142,1,R,asd
0.8869346733668342,0.022935779816513763,0.03618421052631579,0.16601307189542483,0.18487394957983194,1,R,asd
0.8316582914572864,0.03211009174311927,0.03618421052631579,0.16601307189542483,0.17331932773109243,1,R,asd
0.7814070351758794,0.027522935779816515,0.03782894736842105,0.16601307189542483,0.17016806722689076,1,R,asd
0.6959798994974874,0.01834862385321101,0.03782894736842105,0.16732026143790849,0.17121848739495799,1,R,asd
0.678391959798995,0.0,0.04111842105263158,0.16601307189542483,0.18067226890756302,1,R,asd
0.6683417085427136,0.0,0.046052631578947366,0.16862745098039217,0.19642857142857142,1,R,asd
0.6256281407035176,0.0,0.054276315789473686,0.17777777777777778,0.20378151260504201,1,R,asd
0.6532663316582915,0.0,0.0805921052631579,0.22091503267973855,0.1796218487394958,1,R,asd
0.6884422110552764,0.09787234042553192,0.09210526315789473,0.2954248366013072,0.23319327731092437,1,R,asd
0.7211055276381909,0.2680851063829787,0.10526315789473684,0.3411764705882353,0.3602941176470588,1,R,asd
0.7512562814070352,0.2723404255319149,0.1875,0.42483660130718953,0.38760504201680673,1,R,asd
0.8040201005025126,0.2723404255319149,0.25493421052631576,0.4470588235294118,0.42962184873949577,1,R,asd
0.7537688442211056,0.251063829787234,0.2730263157894737,0.48627450980392156,0.46638655462184875,1,R,asd
0.7361809045226131,0.25957446808510637,0.2911184210526316,0.5071895424836601,0.4957983193277311,1,R,asd
0.7035175879396985,0.26382978723404255,0.30098684210526316,0.5124183006535947,0.5052521008403361,1,R,asd
0.7010050251256281,0.2553191489361702,0.31085526315789475,0.526797385620915,0.5189075630252101,1,R,asd
0.7010050251256281,0.25957446808510637,0.31743421052631576,0.5424836601307189,0.5252100840336135,1,R,asd
0.6934673366834171,0.2553191489361702,0.31743421052631576,0.5437908496732026,0.5283613445378151,1,R,asd
0.6683417085427136,0.2425531914893617,0.32401315789473684,0.5464052287581699,0.5262605042016807,1,R,asd
0.6608040201005025,0.2170212765957447,0.3371710526315789,0.5542483660130719,0.5252100840336135,1,R,asd
0.6557788944723618,0.2,0.34539473684210525,0.5581699346405229,0.5210084033613446,1,R,asd
0.6532663316582915,0.19574468085106383,0.3519736842105263,0.5660130718954248,0.5157563025210085,1,R,asd
0.6381909547738693,0.1829787234042553,0.3717105263157895,0.5725490196078431,0.5136554621848739,1,R,asd
0.6306532663316583,0.1702127659574468,0.38651315789473684,0.5973856209150327,0.5105042016806722,1,R,asd
0.6231155778894473,0.15319148936170213,0.3996710526315789,0.6091503267973856,0.5084033613445378,1,R,asd
0.6206030150753769,0.14893617021276595,0.4194078947368421,0.6261437908496732,0.5084033613445378,1,R,asd
0.6155778894472361,0.14468085106382977,0.4276315789473684,0.6300653594771242,0.5084033613445378,1,R,asd
0.6055276381909548,0.14468085106382977,0.4342105263157895,0.6352941176470588,0.5052521008403361,1,R,asd
0.6005025125628141,0.14042553191489363,0.4555921052631579,0.6366013071895424,0.5042016806722689,1,R,asd
0.5879396984924623,0.13617021276595745,0.4654605263157895,0.6352941176470588,0.5,1,R,asd
0.5703517587939698,0.14468085106382977,0.48026315789473684,0.6235294117647059,0.49054621848739494,1,R,asd
0.5628140703517588,0.14042553191489363,0.4819078947368421,0.5986928104575163,0.4831932773109244,1,R,asd
0.5376884422110553,0.13617021276595745,0.4769736842105263,0.5816993464052288,0.46113445378151263,1,R,asd
0.5125628140703518,0.13191489361702127,0.4473684210526316,0.5333333333333333,0.4411764705882353,1,R,asd
0.4623115577889447,0.10212765957446808,0.39144736842105265,0.5071895424836601,0.42857142857142855,1,R,asd
0.4120603015075377,0.07659574468085106,0.3519736842105263,0.44836601307189544,0.39285714285714285,1,R,asd
0.3869346733668342,0.04680851063829787,0.2878289473684211,0.39477124183006534,0.3697478991596639,1,R,asd
0.3492462311557789,0.08936170212765958,0.25,0.3738562091503268,0.34243697478991597,1,R,asd
0.314070351758794,0.10638297872340426,0.22861842105263158,0.32941176470588235,0.2689075630252101,1,R,asd
0.3065326633165829,0.13191489361702127,0.20065789473684212,0.3006535947712418,0.23634453781512604,1,R,asd
0.29396984924623115,0.14468085106382977,0.18914473684210525,0.28888888888888886,0.19222689075630253,1,R,asd
0.2814070351758794,0.15319148936170213,0.17105263157894737,0.26405228758169935,0.15861344537815125,1,R,asd
0.2638190954773869,0.16595744680851063,0.15460526315789475,0.25098039215686274,0.14495798319327732,1,R,asd
0.2562814070351759,0.17446808510638298,0.14473684210526316,0.22875816993464052,0.12289915966386554,1,R,asd
0.24874371859296482,0.17446808510638298,0.13322368421052633,0.21437908496732025,0.1134453781512605,1,R,asd
0.23366834170854273,0.1702127659574468,0.12006578947368421,0.21045751633986928,0.10819327731092437,1,R,asd
0.22110552763819097,0.1702127659574468,0.11348684210526316,0.19738562091503267,0.10504201680672269,1,R,asd
0.22110552763819097,0.16595744680851063,0.10032894736842106,0.1895424836601307,0.10609243697478991,1,R,asd
0.2135678391959799,0.16595744680851063,0.09703947368421052,0.1869281045751634,0.11239495798319328,1,R,asd
0.20351758793969849,0.16595744680851063,0.09375,0.1830065359477124,0.11659663865546219,1,R,asd
0.20100502512562815,0.1574468085106383,0.09210526315789473,0.18169934640522875,0.11869747899159663,1,R,asd
0.1984924623115578,0.15319148936170213,0.08881578947368421,0.17908496732026144,0.12184873949579832,1,R,asd
0.1984924623115578,0.14893617021276595,0.08552631578947369,0.17777777777777778,0.12605042016806722,1,R,asd
0.20854271356783918,0.13617021276595745,0.08223684210526316,0.17777777777777778,0.12605042016806722,1,R,asd
0.2135678391959799,0.13617021276595745,0.08223684210526316,0.17516339869281045,0.12394957983193278,1,R,asd
0.2135678391959799,0.13617021276595745,0.08223684210526316,0.17516339869281045,0.1207983193277311,1,R,asd
0.2135678391959799,0.13617021276595745,0.08223684210526316,0.17516339869281045,0.1207983193277311,1,R,asd
0.2185929648241206,0.13617021276595745,0.08552631578947369,0.17516339869281045,0.11974789915966387,1,R,asd
0.22110552763819097,0.13617021276595745,0.08552631578947369,0.17516339869281045,0.11974789915966387,1,R,asd
0.2236180904522613,0.14042553191489363,0.08717105263157894,0.1738562091503268,0.11869747899159663,1,R,asd
0.2236180904522613,0.14042553191489363,0.09375,0.17516339869281045,0.11554621848739496,1,R,asd
0.228643216080402,0.14042553191489363,0.10032894736842106,0.17647058823529413,0.11449579831932773,1,R,asd
0.23869346733668342,0.14893617021276595,0.10361842105263158,0.17777777777777778,0.11449579831932773,1,R,asd
0.24371859296482412,0.15319148936170213,0.1069078947368421,0.17908496732026144,0.1134453781512605,1,R,asd
0.24874371859296482,0.1574468085106383,0.11513157894736842,0.1803921568627451,0.1134453781512605,1,R,asd
0.24874371859296482,0.1574468085106383,0.11842105263157894,0.1830065359477124,0.1134453781512605,1,R,asd
0.25125628140703515,0.16170212765957448,0.12335526315789473,0.18823529411764706,0.11239495798319328,1,R,asd
0.2562814070351759,0.16595744680851063,0.12664473684210525,0.18823529411764706,0.1134453781512605,1,R,asd
0.2663316582914573,0.16595744680851063,0.12828947368421054,0.18823529411764706,0.1134453781512605,1,R,asd
0.26884422110552764,0.1702127659574468,0.12828947368421054,0.18823529411764706,0.11449579831932773,1,R,asd
0.2814070351758794,0.16595744680851063,0.1299342105263158,0.1895424836601307,0.11449579831932773,1,R,asd
0.2864321608040201,0.16595744680851063,0.13157894736842105,0.19215686274509805,0.11449579831932773,1,R,asd
0.2989949748743719,0.1702127659574468,0.13157894736842105,0.19215686274509805,0.11554621848739496,1,R,asd
0.31155778894472363,0.1702127659574468,0.13157894736842105,0.19215686274509805,0.11554621848739496,1,R,asd
0.31909547738693467,0.17446808510638298,0.13157894736842105,0.1934640522875817,0.11659663865546219,1,R,asd
0.3341708542713568,0.17446808510638298,0.13486842105263158,0.1934640522875817,0.11659663865546219,1,R,asd
0.35175879396984927,0.17446808510638298,0.13651315789473684,0.19477124183006536,0.11764705882352941,1,R,asd
0.3592964824120603,0.17446808510638298,0.13815789473684212,0.19738562091503267,0.11869747899159663,1,R,asd
0.3844221105527638,0.1702127659574468,0.13980263157894737,0.19869281045751633,0.11974789915966387,1,R,asd
0.4020100502512563,0.17446808510638298,0.14144736842105263,0.2,0.1207983193277311,1,R,asd
0.40954773869346733,0.17872340425531916,0.14473684210526316,0.20130718954248367,0.1207983193277311,1,R,asd
0.43467336683417085,0.17872340425531916,0.14473684210526316,0.20130718954248367,0.11974789915966387,1,R,asd
0.45226130653266333,0.17446808510638298,0.14473684210526316,0.20261437908496732,0.1207983193277311,1,R,asd
0.4949748743718593,0.17446808510638298,0.14802631578947367,0.20261437908496732,0.1207983193277311,1,R,asd
0.5301507537688442,0.17446808510638298,0.14802631578947367,0.20261437908496732,0.1207983193277311,1,R,asd
0.5452261306532663,0.17872340425531916,0.14967105263157895,0.20261437908496732,0.1207983193277311,1,R,asd
0.5703517587939698,0.17872340425531916,0.14967105263157895,0.20261437908496732,0.1207983193277311,1,R,asd
0.6105527638190955,0.17446808510638298,0.1513157894736842,0.20522875816993463,0.12184873949579832,1,R,asd
0.6331658291457286,0.17446808510638298,0.14967105263157895,0.20522875816993463,0.12289915966386554,1,R,asd
0.6733668341708543,0.17446808510638298,0.1513157894736842,0.20522875816993463,0.12289915966386554,1,R,asd
0.6809045226130653,0.17872340425531916,0.1513157894736842,0.20522875816993463,0.12394957983193278,1,R,asd
0.6608040201005025,0.1702127659574468,0.15460526315789475,0.20784313725490197,0.12289915966386554,1,R,asd
0.6105527638190955,0.15319148936170213,0.15296052631578946,0.20915032679738563,0.12289915966386554,1,R,asd
0.5703517587939698,0.14468085106382977,0.15296052631578946,0.20915032679738563,0.12289915966386554,1,R,asd
0.4949748743718593,0.10638297872340426,0.1513157894736842,0.20915032679738563,0.12184873949579832,1,R,asd
0.44472361809045224,0.0851063829787234,0.14967105263157895,0.21045751633986928,0.12184873949579832,1,R,asd
0.4321608040201005,0.03829787234042553,0.13815789473684212,0.20915032679738563,0.12184873949579832,1,R,asd
0.40954773869346733,0.00851063829787234,0.12828947368421054,0.20915032679738563,0.1207983193277311,1,R,asd
0.4020100502512563,0.0,0.12664473684210525,0.20784313725490197,0.1207983193277311,1,R,asd
0.4020100502512563,0.0,0.12664473684210525,0.2065359477124183,0.12184873949579832,1,R,asd
0.40703517587939697,0.0,0.13157894736842105,0.21045751633986928,0.12920168067226892,1,R,asd
0.40703517587939697,0.0,0.14967105263157895,0.21830065359477124,0.1334033613445378,1,R,asd
0.39195979899497485,0.0,0.16776315789473684,0.2222222222222222,0.13445378151260504,1,R,asd
0.3844221105527638,0.0,0.17763157894736842,0.23006535947712417,0.13865546218487396,1,R,asd
0.38190954773869346,0.0,0.19736842105263158,0.23660130718954248,0.14285714285714285,1,R,asd
0.37185929648241206,0.008064516129032258,0.20723684210526316,0.23921568627450981,0.14390756302521007,1,R,asd
0.36432160804020103,0.008064516129032258,0.21217105263157895,0.24052287581699347,0.14390756302521007,1,R,asd
0.36180904522613067,0.004032258064516129,0.21546052631578946,0.24183006535947713,0.14285714285714285,1,R,asd
0.36180904522613067,0.0,0.21710526315789475,0.24183006535947713,0.14390756302521007,1,R,asd
0.35678391959798994,0.0,0.21710526315789475,0.24183006535947713,0.14285714285714285,1,R,asd
0.35678391959798994,0.012096774193548387,0.22861842105263158,0.24052287581699347,0.14285714285714285,1,R,asd
0.3542713567839196,0.016129032258064516,0.23684210526315788,0.24183006535947713,0.14495798319327732,1,R,asd
0.35175879396984927,0.016129032258064516,0.24835526315789475,0.24313725490196078,0.14495798319327732,1,R,asd
0.34673366834170855,0.016129032258064516,0.25164473684210525,0.24444444444444444,0.14495798319327732,1,R,asd
0.35175879396984927,0.016129032258064516,0.2582236842105263,0.24836601307189543,0.148109243697479,1,R,asd
0.35175879396984927,0.016129032258064516,0.2746710526315789,0.2549019607843137,0.15126050420168066,1,R,asd
0.35175879396984927,0.020161290322580645,0.2894736842105263,0.257516339869281,0.15231092436974789,1,R,asd
0.3492462311557789,0.020161290322580645,0.29769736842105265,0.26143790849673204,0.15336134453781514,1,R,asd
0.3492462311557789,0.016129032258064516,0.31085526315789475,0.269281045751634,0.15546218487394958,1,R,asd
0.34673366834170855,0.016129032258064516,0.31743421052631576,0.27058823529411763,0.15966386554621848,1,R,asd
0.3492462311557789,0.016129032258064516,0.32894736842105265,0.27450980392156865,0.16176470588235295,1,R,asd
0.3492462311557789,0.024193548387096774,0.33881578947368424,0.2758169934640523,0.16281512605042017,1,R,asd
0.3492462311557789,0.028225806451612902,0.34210526315789475,0.27712418300653596,0.16176470588235295,1,R,asd
0.3492462311557789,0.03225806451612903,0.3355263157894737,0.27712418300653596,0.16176470588235295,1,R,asd
0.34673366834170855,0.04032258064516129,0.3223684210526316,0.2758169934640523,0.16281512605042017,1,R,asd
0.3492462311557789,0.04032258064516129,0.31743421052631576,0.2758169934640523,0.1638655462184874,1,R,asd
0.35175879396984927,0.04435483870967742,0.32401315789473684,0.28104575163398693,0.16596638655462184,1,R,asd
0.35175879396984927,0.04032258064516129,0.32894736842105265,0.28366013071895424,0.16701680672268907,1,R,asd
0.3592964824120603,0.04032258064516129,0.33881578947368424,0.2928104575163399,0.17436974789915966,1,R,asd
0.36180904522613067,0.04032258064516129,0.34868421052631576,0.30718954248366015,0.17752100840336135,1,R,asd
0.3693467336683417,0.04435483870967742,0.35526315789473684,0.3137254901960784,0.18172268907563024,1,R,asd
0.3693467336683417,0.04838709677419355,0.3717105263157895,0.330718954248366,0.18592436974789917,1,R,asd
0.36683417085427134,0.05241935483870968,0.3963815789473684,0.3464052287581699,0.18907563025210083,1,R,asd
0.37185929648241206,0.056451612903225805,0.4095394736842105,0.3803921568627451,0.19852941176470587,1,R,asd
0.37185929648241206,0.056451612903225805,0.4276315789473684,0.4065359477124183,0.20483193277310924,1,R,asd
0.37185929648241206,0.06048387096774194,0.4473684210526316,0.41568627450980394,0.2111344537815126,1,R,asd
0.37185929648241206,0.06451612903225806,0.4588815789473684,0.4392156862745098,0.22899159663865545,1,R,asd
0.37185929648241206,0.07258064516129033,0.4819078947368421,0.4627450980392157,0.23844537815126052,1,R,asd
0.3768844221105528,0.07661290322580645,0.49506578947368424,0.47320261437908495,0.25630252100840334,1,R,asd
0.3768844221105528,0.08064516129032258,0.5115131578947368,0.5006535947712418,0.29936974789915966,1,R,asd
0.3793969849246231,0.08064516129032258,0.5180921052631579,0.5254901960784314,0.3245798319327731,1,R,asd
0.3844221105527638,0.08870967741935484,0.5197368421052632,0.5333333333333333,0.36659663865546216,1,R,asd
0.3869346733668342,0.09274193548387097,0.524671052631579,0.534640522875817,0.4180672268907563,1,R,asd
0.3869346733668342,0.09274193548387097,0.5279605263157895,0.5359477124183006,0.45903361344537813,1,R,asd
0.3869346733668342,0.0967741935483871,0.5263157894736842,0.538562091503268,0.5336134453781513,1,R,asd
0.38944723618090454,0.10080645161290322,0.5296052631578947,0.5450980392156862,0.5766806722689075,1,R,asd
0.39195979899497485,0.10080645161290322,0.5296052631578947,0.5490196078431373,0.5945378151260504,1,R,asd
0.39195979899497485,0.10483870967741936,0.5328947368421053,0.5594771241830065,0.6281512605042017,1,R,asd
0.38944723618090454,0.10887096774193548,0.5394736842105263,0.5686274509803921,0.6397058823529411,1,R,asd
0.39195979899497485,0.10887096774193548,0.5427631578947368,0.5738562091503268,0.6554621848739496,1,R,asd
0.39195979899497485,0.10887096774193548,0.5493421052631579,0.5856209150326798,0.6827731092436975,1,R,asd
0.3944723618090452,0.11693548387096774,0.5625,0.6065359477124183,0.7058823529411765,1,R,asd
0.4020100502512563,0.125,0.5723684210526315,0.6091503267973856,0.7331932773109243,1,R,asd
0.4045226130653266,0.12903225806451613,0.5855263157894737,0.611764705882353,0.7436974789915967,1,R,asd
0.40703517587939697,0.12903225806451613,0.587171052631579,0.6143790849673203,0.7521008403361344,1,R,asd
0.40703517587939697,0.12903225806451613,0.5888157894736842,0.6209150326797386,0.7668067226890757,1,R,asd
0.40703517587939697,0.12903225806451613,0.5921052631578947,0.6209150326797386,0.7689075630252101,1,R,asd
0.40703517587939697,0.12903225806451613,0.59375,0.6222222222222222,0.7741596638655462,1,R,asd
0.4045226130653266,0.13306451612903225,0.5953947368421053,0.6235294117647059,0.7783613445378151,1,R,asd
0.4045226130653266,0.12903225806451613,0.5986842105263158,0.6222222222222222,0.7783613445378151,1,R,asd
0.40703517587939697,0.13306451612903225,0.6052631578947368,0.6209150326797386,0.7773109243697479,1,R,asd
0.40703517587939697,0.13306451612903225,0.6134868421052632,0.6222222222222222,0.7773109243697479,1,R,asd
0.40703517587939697,0.13306451612903225,0.6167763157894737,0.6235294117647059,0.7783613445378151,1,R,asd
0.40703517587939697,0.13709677419354838,0.618421052631579,0.6235294117647059,0.7794117647058824,1,R,asd
0.40703517587939697,0.13306451612903225,0.6200657894736842,0.6248366013071895,0.7783613445378151,1,R,asd
0.40703517587939697,0.13306451612903225,0.6217105263157895,0.6235294117647059,0.7773109243697479,1,R,asd
0.40703517587939697,0.13306451612903225,0.6233552631578947,0.6248366013071895,0.7762605042016807,1,R,asd
0.40703517587939697,0.13709677419354838,0.625,0.6235294117647059,0.7762605042016807,1,R,asd
0.40703517587939697,0.13709677419354838,0.6266447368421053,0.6222222222222222,0.7741596638655462,1,R,asd
0.40703517587939697,0.13306451612903225,0.6299342105263158,0.6209150326797386,0.773109243697479,1,R,asd
0.4045226130653266,0.13306451612903225,0.6299342105263158,0.6209150326797386,0.7720588235294118,1,R,asd
0.40703517587939697,0.12903225806451613,0.631578947368421,0.6196078431372549,0.7699579831932774,1,R,asd
0.40703517587939697,0.12903225806451613,0.631578947368421,0.6183006535947713,0.7678571428571429,1,R,asd
0.40703517587939697,0.13306451612903225,0.631578947368421,0.6183006535947713,0.7678571428571429,1,R,asd
0.40954773869346733,0.13306451612903225,0.6332236842105263,0.6183006535947713,0.7678571428571429,1,R,asd
0.40954773869346733,0.13306451612903225,0.6348684210526315,0.6130718954248366,0.7668067226890757,1,R,asd
0.40954773869346733,0.12903225806451613,0.6381578947368421,0.6104575163398693,0.7657563025210085,1,R,asd
0.4120603015075377,0.12903225806451613,0.6398026315789473,0.6078431372549019,0.7657563025210085,1,R,asd
0.4120603015075377,0.13306451612903225,0.6414473684210527,0.6052287581699346,0.7647058823529411,1,R,asd
0.40954773869346733,0.13306451612903225,0.6430921052631579,0.6052287581699346,0.7626050420168067,1,R,asd
0.40954773869346733,0.13306451612903225,0.6430921052631579,0.6039215686274509,0.7605042016806722,1,R,asd
0.40954773869346733,0.13709677419354838,0.6447368421052632,0.6013071895424836,0.7605042016806722,1,R,asd
0.4120603015075377,0.13709677419354838,0.6463815789473685,0.6,0.7584033613445378,1,R,asd
0.4120603015075377,0.13709677419354838,0.6463815789473685,0.5986928104575163,0.7573529411764706,1,R,asd
0.40954773869346733,0.13306451612903225,0.649671052631579,0.5986928104575163,0.7573529411764706,1,R,asd
0.40954773869346733,0.13306451612903225,0.6513157894736842,0.5986928104575163,0.7573529411764706,1,R,asd
0.40954773869346733,0.13306451612903225,0.6546052631578947,0.5986928104575163,0.7584033613445378,1,R,asd
0.40954773869346733,0.12903225806451613,0.65625,0.5986928104575163,0.7573529411764706,1,R,asd
0.40703517587939697,0.13306451612903225,0.65625,0.5973856209150327,0.7563025210084033,1,R,asd
0.40703517587939697,0.12903225806451613,0.65625,0.5973856209150327,0.7563025210084033,1,R,asd
0.40954773869346733,0.13306451612903225,0.6578947368421053,0.596078431372549,0.7552521008403361,1,R,asd
0.40954773869346733,0.13709677419354838,0.662828947368421,0.5895424836601307,0.7531512605042017,1,R,asd
0.41959798994974873,0.13709677419354838,0.6677631578947368,0.5856209150326798,0.7521008403361344,1,R,asd
0.4296482412060301,0.13709677419354838,0.6694078947368421,0.5843137254901961,0.7489495798319328,1,R,asd
0.43467336683417085,0.13709677419354838,0.6726973684210527,0.5830065359477125,0.7478991596638656,1,R,asd
0.45979899497487436,0.13709677419354838,0.6726973684210527,0.5830065359477125,0.7457983193277311,1,R,asd
0.4723618090452261,0.13306451612903225,0.6726973684210527,0.5803921568627451,0.740546218487395,1,R,asd
0.47738693467336685,0.12903225806451613,0.6726973684210527,0.5790849673202615,0.7384453781512605,1,R,asd
0.4899497487437186,0.13306451612903225,0.6726973684210527,0.5790849673202615,0.7331932773109243,1,R,asd
0.507537688442211,0.13709677419354838,0.6743421052631579,0.5764705882352941,0.7247899159663865,1,R,asd
0.5226130653266332,0.13709677419354838,0.6726973684210527,0.5777777777777777,0.7216386554621849,1,R,asd
0.5452261306532663,0.13709677419354838,0.6726973684210527,0.5790849673202615,0.7184873949579832,1,R,asd
0.5527638190954773,0.13709677419354838,0.6743421052631579,0.5777777777777777,0.7153361344537815,1,R,asd
0.5728643216080402,0.14112903225806453,0.6726973684210527,0.5777777777777777,0.7132352941176471,1,R,asd
0.5829145728643216,0.14516129032258066,0.6743421052631579,0.5777777777777777,0.707983193277311,1,R,asd
0.585427135678392,0.14516129032258066,0.6726973684210527,0.5803921568627451,0.7037815126050421,1,R,asd
0.5753768844221105,0.14516129032258066,0.6694078947368421,0.5816993464052288,0.7027310924369747,1,R,asd
0.5703517587939698,0.14516129032258066,0.6694078947368421,0.5803921568627451,0.6964285714285714,1,R,asd
0.5703517587939698,0.14516129032258066,0.6677631578947368,0.5816993464052288,0.6901260504201681,1,R,asd
0.5577889447236181,0.14919354838709678,0.6661184210526315,0.5803921568627451,0.6764705882352942,1,R,asd
0.5452261306532663,0.1532258064516129,0.6661184210526315,0.5777777777777777,0.6659663865546218,1,R,asd
0.5402010050251256,0.15725806451612903,0.6644736842105263,0.5790849673202615,0.6628151260504201,1,R,asd
0.542713567839196,0.15725806451612903,0.662828947368421,0.5790849673202615,0.657563025210084,1,R,asd
0.5402010050251256,0.1532258064516129,0.649671052631579,0.5764705882352941,0.6386554621848739,1,R,asd
0.5326633165829145,0.14516129032258066,0.6167763157894737,0.5673202614379085,0.6207983193277311,1,R,asd
0.5125628140703518,0.125,0.59375,0.5411764705882353,0.5819327731092437,1,R,asd
0.507537688442211,0.11693548387096774,0.5361842105263158,0.5163398692810458,0.5388655462184874,1,R,asd
0.5,0.0967741935483871,0.4967105263157895,0.4980392156862745,0.5105042016806722,1,R,asd
0.4899497487437186,0.08870967741935484,0.4720394736842105,0.45751633986928103,0.45063025210084034,1,R,asd
0.47738693467336685,0.08064516129032258,0.3980263157894737,0.40522875816993464,0.421218487394958,1,R,asd
0.44221105527638194,0.07661290322580645,0.35526315789473684,0.37254901960784315,0.35189075630252103,1,R,asd
0.41708542713567837,0.07661290322580645,0.29276315789473684,0.32679738562091504,0.2972689075630252,1,R,asd
0.40703517587939697,0.07661290322580645,0.25164473684210525,0.2823529411764706,0.26260504201680673,1,R,asd
0.3944723618090452,0.08064516129032258,0.23190789473684212,0.26666666666666666,0.20693277310924368,1,R,asd
0.38944723618090454,0.07661290322580645,0.20065789473684212,0.2457516339869281,0.1869747899159664,1,R,asd
0.38190954773869346,0.08870967741935484,0.17763157894736842,0.23790849673202613,0.18172268907563024,1,R,asd
0.3844221105527638,0.0967741935483871,0.16611842105263158,0.22745098039215686,0.17436974789915966,1,R,asd
0.3869346733668342,0.0967741935483871,0.15296052631578946,0.2235294117647059,0.1722689075630252,1,R,asd
0.4020100502512563,0.0967741935483871,0.13980263157894737,0.22091503267973855,0.1722689075630252,1,R,asd
0.4120603015075377,0.0967741935483871,0.13157894736842105,0.21045751633986928,0.17857142857142858,1,R,asd
0.40703517587939697,0.10080645161290322,0.12664473684210525,0.21176470588235294,0.17752100840336135,1,R,asd
0.42462311557788945,0.125,0.13157894736842105,0.2169934640522876,0.1565126050420168,1,R,asd
0.4396984924623116,0.14919354838709678,0.14967105263157895,0.21830065359477124,0.15966386554621848,1,R,asd
0.4723618090452261,0.18548387096774194,0.16611842105263158,0.2065359477124183,0.17857142857142858,1,R,asd
0.47738693467336685,0.2661290322580645,0.16611842105263158,0.20784313725490197,0.20693277310924368,1,R,asd
0.4723618090452261,0.31451612903225806,0.1875,0.2235294117647059,0.2415966386554622,1,R,asd
0.46733668341708545,0.3629032258064516,0.2138157894736842,0.24836601307189543,0.27310924369747897,1,R,asd
0.4723618090452261,0.3709677419354839,0.2236842105263158,0.3006535947712418,0.27941176470588236,1,R,asd
0.4798994974874372,0.3709677419354839,0.24671052631578946,0.33464052287581697,0.3130252100840336,1,R,asd
0.49246231155778897,0.3629032258064516,0.25493421052631576,0.34901960784313724,0.3960084033613445,1,R,asd
0.4899497487437186,0.3629032258064516,0.25,0.3633986928104575,0.4222689075630252,1,R,asd
0.4899497487437186,0.32661290322580644,0.23190789473684212,0.36470588235294116,0.4264705882352941,1,R,asd
0.4824120603015075,0.27419354838709675,0.21052631578947367,0.35947712418300654,0.4338235294117647,1,R,asd
0.4723618090452261,0.23790322580645162,0.1611842105263158,0.3437908496732026,0.43067226890756305,1,R,asd
0.45226130653266333,0.17338709677419356,0.14144736842105263,0.33202614379084966,0.4170168067226891,1,R,asd
0.44221105527638194,0.13709677419354838,0.1513157894736842,0.2980392156862745,0.3581932773109244,1,R,asd
0.44472361809045224,0.11693548387096774,0.14473684210526316,0.26143790849673204,0.328781512605042,1,R,asd
0.44974874371859297,0.14516129032258066,0.13651315789473684,0.25098039215686274,0.33403361344537813,1,R,asd
0.4623115577889447,0.1532258064516129,0.13322368421052633,0.22745098039215686,0.25840336134453784,1,R,asd
0.46984924623115576,0.16129032258064516,0.13815789473684212,0.21568627450980393,0.23319327731092437,1,R,asd
0.4824120603015075,0.17338709677419356,0.14144736842105263,0.21568627450980393,0.21743697478991597,1,R,asd
0.4899497487437186,0.17338709677419356,0.14473684210526316,0.21437908496732025,0.20378151260504201,1,R,asd
0.48743718592964824,0.16129032258064516,0.13651315789473684,0.20915032679738563,0.1953781512605042,1,R,asd
0.4798994974874372,0.15725806451612903,0.13322368421052633,0.2065359477124183,0.18487394957983194,1,R,asd
0.4748743718592965,0.1532258064516129,0.12171052631578948,0.20261437908496732,0.18382352941176472,1,R,asd
0.46733668341708545,0.14919354838709678,0.11019736842105263,0.20130718954248367,0.18382352941176472,1,R,asd
0.45226130653266333,0.14516129032258066,0.10855263157894737,0.19869281045751633,0.18067226890756302,1,R,asd
0.4472361809045226,0.13306451612903225,0.10526315789473684,0.19869281045751633,0.1796218487394958,1,R,asd
0.4396984924623116,0.12096774193548387,0.10032894736842106,0.19869281045751633,0.18067226890756302,1,R,asd
0.4296482412060301,0.11693548387096774,0.09703947368421052,0.19607843137254902,0.17857142857142858,1,R,asd
0.42462311557788945,0.11290322580645161,0.08881578947368421,0.1934640522875817,0.17647058823529413,1,R,asd
0.41708542713567837,0.09274193548387097,0.08717105263157894,0.19215686274509805,0.17436974789915966,1,R,asd
0.4120603015075377,0.0846774193548387,0.08552631578947369,0.19084967320261437,0.17542016806722688,1,R,asd
0.4020100502512563,0.07661290322580645,0.08717105263157894,0.1895424836601307,0.17542016806722688,1,R,asd
0.4020100502512563,0.07258064516129033,0.08881578947368421,0.1895424836601307,0.17647058823529413,1,R,asd
0.4045226130653266,0.07661290322580645,0.08881578947368421,0.1895424836601307,0.17542016806722688,1,R,asd
0.40703517587939697,0.07661290322580645,0.09210526315789473,0.1895424836601307,0.17436974789915966,1,R,asd
0.3969849246231156,0.07661290322580645,0.08717105263157894,0.1869281045751634,0.1722689075630252,1,R,asd
0.39195979899497485,0.07258064516129033,0.07236842105263158,0.1803921568627451,0.16911764705882354,1,R,asd
0.38944723618090454,0.06451612903225806,0.06578947368421052,0.17777777777777778,0.16596638655462184,1,R,asd
0.3844221105527638,0.06451612903225806,0.0625,0.17516339869281045,0.16071428571428573,1,R,asd
0.3793969849246231,0.06451612903225806,0.05756578947368421,0.17254901960784313,0.15756302521008403,1,R,asd
0.3743718592964824,0.06048387096774194,0.05921052631578947,0.17254901960784313,0.15546218487394958,1,R,asd
0.3693467336683417,0.06048387096774194,0.05592105263157895,0.17254901960784313,0.15231092436974789,1,R,asd
0.36180904522613067,0.06048387096774194,0.05098684210526316,0.17124183006535948,0.15021008403361344,1,R,asd
0.3542713567839196,0.06854838709677419,0.047697368421052634,0.16862745098039217,0.14705882352941177,1,R,asd
0.35175879396984927,0.07258064516129033,0.044407894736842105,0.16601307189542483,0.14390756302521007,1,R,asd
0.3442211055276382,0.06048387096774194,0.039473684210526314,0.16470588235294117,0.14285714285714285,1,R,asd
0.33668341708542715,0.05241935483870968,0.03782894736842105,0.16601307189542483,0.1407563025210084,1,R,asd
0.32914572864321606,0.05241935483870968,0.024671052631578948,0.15816993464052287,0.13970588235294118,1,R,asd
0.31155778894472363,0.06451612903225806,0.014802631578947368,0.1542483660130719,0.1334033613445378,1,R,asd
0.29396984924623115,0.08064516129032258,0.003289473684210526,0.1503267973856209,0.13130252100840337,1,R,asd
0.2889447236180904,0.0846774193548387,0.0,0.1437908496732026,0.13130252100840337,1,R,asd
0.26884422110552764,0.08870967741935484,0.0,0.1411764705882353,0.12920168067226892,1,R,asd
0.25879396984924624,0.10080645161290322,0.0,0.13725490196078433,0.12605042016806722,1,R,asd
0.23869346733668342,0.125,0.0,0.13594771241830064,0.125,1,R,asd
0.22110552763819097,0.14112903225806453,0.0,0.13333333333333333,0.12394957983193278,1,R,asd
0.21608040201005024,0.16129032258064516,0.0,0.13071895424836602,0.12394957983193278,1,R,asd
0.20854271356783918,0.18548387096774194,0.0,0.12941176470588237,0.12394957983193278,1,R,asd
0.1984924623115578,0.1935483870967742,0.0,0.12810457516339868,0.12289915966386554,1,R,asd
0.1984924623115578,0.2056451612903226,0.0,0.12418300653594772,0.12184873949579832,1,R,asd
0.19095477386934673,0.22580645161290322,0.0,0.12287581699346405,0.1207983193277311,1,R,asd
0.18341708542713567,0.23790322580645162,0.0,0.12026143790849673,0.12184873949579832,1,R,asd
0.1708542713567839,0.25806451612903225,0.004431314623338257,0.12026143790849673,0.12289915966386554,1,R,asd
0.1708542713567839,0.2540322580645161,0.005908419497784343,0.12287581699346405,0.12710084033613445,1,R,asd
0.17336683417085427,0.2540322580645161,0.008862629246676515,0.12156862745098039,0.12815126050420167,1,R,asd
0.16834170854271358,0.25806451612903225,0.005908419497784343,0.12026143790849673,0.12815126050420167,1,R,asd
0.16331658291457288,0.2620967741935484,0.004431314623338257,0.12156862745098039,0.12815126050420167,1,R,asd
0.16331658291457288,0.25806451612903225,0.0014771048744460858,0.12287581699346405,0.12920168067226892,1,R,asd
0.16080402010050251,0.2620967741935484,0.0,0.12287581699346405,0.12920168067226892,1,R,asd
0.16080402010050251,0.2661290322580645,0.0029542097488921715,0.12418300653594772,0.1323529411764706,1,R,asd
0.16331658291457288,0.2540322580645161,0.0029542097488921715,0.12418300653594772,0.1334033613445378,1,R,asd
0.1658291457286432,0.23387096774193547,0.0014771048744460858,0.12418300653594772,0.13130252100840337,1,R,asd
0.1658291457286432,0.2217741935483871,0.005908419497784343,0.11372549019607843,0.11974789915966387,1,R,asd
0.1658291457286432,0.18548387096774194,0.03249630723781388,0.11241830065359477,0.11449579831932773,1,R,asd
0.16834170854271358,0.16532258064516128,0.03692762186115214,0.11503267973856209,0.11029411764705882,1,R,asd
0.17336683417085427,0.10483870967741936,0.0413589364844904,0.11372549019607843,0.1092436974789916,1,R,asd
0.18090452261306533,0.08064516129032258,0.03692762186115214,0.10980392156862745,0.11869747899159663,1,R,asd
0.17587939698492464,0.0846774193548387,0.0310192023633678,0.10065359477124183,0.13445378151260504,1,R,asd
0.17587939698492464,0.0846774193548387,0.013293943870014771,0.09673202614379085,0.13760504201680673,1,R,asd
0.17336683417085427,0.08870967741935484,0.004431314623338257,0.09411764705882353,0.13550420168067226,1,R,asd
0.17587939698492464,0.08064516129032258,0.0,0.08888888888888889,0.12920168067226892,1,R,asd
0.18090452261306533,0.07661290322580645,0.0,0.08496732026143791,0.12289915966386554,1,R,asd
0.19597989949748743,0.08870967741935484,0.0,0.08235294117647059,0.09978991596638656,1,R,asd
0.2135678391959799,0.0846774193548387,0.0014104372355430183,0.07712418300653595,0.0934873949579832,1,R,asd
0.2236180904522613,0.08870967741935484,0.004231311706629055,0.07581699346405228,0.08718487394957983,1,R,asd
0.23618090452261306,0.0967741935483871,0.018335684062059238,0.07581699346405228,0.10084033613445378,1,R,asd
0.2537688442211055,0.09274193548387097,0.05218617771509168,0.0784313725490196,0.10819327731092437,1,R,asd
0.2814070351758794,0.0846774193548387,0.07193229901269393,0.07712418300653595,0.09873949579831932,1,R,asd
0.29396984924623115,0.08064516129032258,0.07475317348377997,0.07712418300653595,0.09033613445378151,1,R,asd
0.2964824120603015,0.07258064516129033,0.07193229901269393,0.07581699346405228,0.08823529411764706,1,R,asd
0.30402010050251255,0.06451612903225806,0.07475317348377997,0.07581699346405228,0.08718487394957983,1,R,asd
0.3065326633165829,0.056451612903225805,0.06629055007052186,0.08235294117647059,0.0861344537815126,1,R,asd
0.2989949748743719,0.04838709677419355,0.05923836389280677,0.08366013071895424,0.0861344537815126,1,R,asd
0.29396984924623115,0.04032258064516129,0.06205923836389281,0.0784313725490196,0.08508403361344538,1,R,asd
0.2964824120603015,0.036290322580645164,0.05923836389280677,0.08627450980392157,0.09243697478991597,1,R,asd
0.2989949748743719,0.028225806451612902,0.05923836389280677,0.08627450980392157,0.0934873949579832,1,R,asd
0.3015075376884422,0.020161290322580645,0.056417489421720736,0.08888888888888889,0.09243697478991597,1,R,asd
0.2989949748743719,0.024193548387096774,0.05218617771509168,0.08235294117647059,0.09138655462184873,1,R,asd
0.2964824120603015,0.016129032258064516,0.056417489421720736,0.07712418300653595,0.08928571428571429,1,R,asd
0.2964824120603015,0.012096774193548387,0.0691114245416079,0.06666666666666667,0.08823529411764706,1,R,asd
0.3015075376884422,0.008064516129032258,0.08885754583921016,0.06013071895424837,0.08928571428571429,1,R,asd
0.31155778894472363,0.008064516129032258,0.10437235543018336,0.06143790849673202,0.09243697478991597,1,R,asd
0.31909547738693467,0.012096774193548387,0.12693935119887165,0.06013071895424837,0.09873949579831932,1,R,asd
0.3391959798994975,0.020161290322580645,0.13540197461212977,0.06013071895424837,0.10504201680672269,1,R,asd
0.35678391959798994,0.020161290322580645,0.12834978843441466,0.06274509803921569,0.11659663865546219,1,R,asd
0.3542713567839196,0.024193548387096774,0.10860366713681241,0.06535947712418301,0.12184873949579832,1,R,asd
0.3542713567839196,0.024193548387096774,0.1071932299012694,0.06797385620915032,0.13865546218487396,1,R,asd
0.36180904522613067,0.028225806451612902,0.1156558533145275,0.08104575163398693,0.16596638655462184,1,R,asd
0.36683417085427134,0.03225806451612903,0.09590973201692525,0.11241830065359477,0.17857142857142858,1,R,asd
0.3743718592964824,0.036290322580645164,0.09167842031029619,0.12549019607843137,0.19432773109243698,1,R,asd
0.38190954773869346,0.036290322580645164,0.06488011283497884,0.15294117647058825,0.1953781512605042,1,R,asd
0.39195979899497485,0.03225806451612903,0.06064880112834979,0.1503267973856209,0.19012605042016806,1,R,asd
0.38944723618090454,0.04435483870967742,0.05923836389280677,0.13856209150326798,0.17752100840336135,1,R,asd
0.39195979899497485,0.04838709677419355,0.05782792665726375,0.12418300653594772,0.16596638655462184,1,R,asd
0.38944723618090454,0.04838709677419355,0.0535966149506347,0.11895424836601307,0.15756302521008403,1,R,asd
0.38944723618090454,0.04838709677419355,0.047954866008462625,0.11895424836601307,0.14495798319327732,1,R,asd
0.3944723618090452,0.04838709677419355,0.039492242595204514,0.11241830065359477,0.12815126050420167,1,R,asd
0.39949748743718594,0.04838709677419355,0.029619181946403384,0.1111111111111111,0.10819327731092437,1,R,asd
0.3944723618090452,0.04838709677419355,0.029619181946403384,0.1084967320261438,0.10084033613445378,1,R,asd
0.3944723618090452,0.04032258064516129,0.02679830747531735,0.10718954248366012,0.10084033613445378,1,R,asd
0.39195979899497485,0.036290322580645164,0.022566995768688293,0.10588235294117647,0.12289915966386554,1,R,asd
0.38944723618090454,0.028225806451612902,0.021156558533145273,0.10980392156862745,0.12815126050420167,1,R,asd
0.39195979899497485,0.024193548387096774,0.021156558533145273,0.1542483660130719,0.13445378151260504,1,R,asd
0.39195979899497485,0.020161290322580645,0.023977433004231313,0.1869281045751634,0.14495798319327732,1,R,asd
0.3969849246231156,0.016129032258064516,0.029619181946403384,0.2601307189542484,0.1565126050420168,1,R,asd
0.4020100502512563,0.012096774193548387,0.03526093088857546,0.29150326797385623,0.16911764705882354,1,R,asd
0.4221105527638191,0.012096774193548387,0.04231311706629055,0.3359477124183007,0.18382352941176472,1,R,asd
0.43467336683417085,0.024193548387096774,0.05500705218617771,0.34509803921568627,0.18592436974789917,1,R,asd
0.4472361809045226,0.04435483870967742,0.06064880112834979,0.3437908496732026,0.1880252100840336,1,R,asd
0.45979899497487436,0.05241935483870968,0.07334273624823695,0.3503267973856209,0.19222689075630253,1,R,asd
0.4648241206030151,0.056451612903225805,0.0846262341325811,0.3660130718954248,0.1953781512605042,1,R,asd
0.4798994974874372,0.06451612903225806,0.0930888575458392,0.3764705882352941,0.20693277310924368,1,R,asd
0.4849246231155779,0.06048387096774194,0.10860366713681241,0.3934640522875817,0.22058823529411764,1,R,asd
0.49748743718592964,0.06854838709677419,0.11988716502115655,0.4013071895424837,0.22794117647058823,1,R,asd
0.5,0.07258064516129033,0.12693935119887165,0.40522875816993464,0.25210084033613445,1,R,asd
0.5,0.07258064516129033,0.13540197461212977,0.40261437908496733,0.2857142857142857,1,R,asd
0.49246231155778897,0.08064516129032258,0.14386459802538787,0.39869281045751637,0.3014705882352941,1,R,asd
0.49748743718592964,0.08870967741935484,0.14950634696755993,0.3908496732026144,0.3329831932773109,1,R,asd
0.5025125628140703,0.0967741935483871,0.16784203102961917,0.38562091503267976,0.3445378151260504,1,R,asd
0.5050251256281407,0.11290322580645161,0.1777150916784203,0.38300653594771245,0.3550420168067227,1,R,asd
0.5050251256281407,0.12096774193548387,0.19746121297602257,0.3843137254901961,0.3581932773109244,1,R,asd
0.507537688442211,0.13709677419354838,0.2059238363892807,0.3869281045751634,0.3592436974789916,1,R,asd
0.5100502512562815,0.13709677419354838,0.2059238363892807,0.3869281045751634,0.35714285714285715,1,R,asd
0.5125628140703518,0.13709677419354838,0.20451339915373765,0.3895424836601307,0.3560924369747899,1,R,asd
0.5100502512562815,0.14112903225806453,0.21015514809590974,0.3895424836601307,0.375,1,R,asd
0.5175879396984925,0.14919354838709678,0.21156558533145275,0.39738562091503266,0.39915966386554624,1,R,asd
0.5251256281407035,0.1532258064516129,0.2059238363892807,0.396078431372549,0.40021008403361347,1,R,asd
0.535175879396985,0.18548387096774194,0.21015514809590974,0.4013071895424837,0.4012605042016807,1,R,asd
0.5552763819095478,0.21774193548387097,0.231311706629055,0.43529411764705883,0.40756302521008403,1,R,asd
0.5628140703517588,0.2701612903225806,0.2524682651622003,0.465359477124183,0.41491596638655465,1,R,asd
0.5728643216080402,0.32661290322580644,0.2623413258110014,0.4875816993464052,0.4495798319327731,1,R,asd
0.5753768844221105,0.3588709677419355,0.2863187588152327,0.5359477124183006,0.5010504201680672,1,R,asd
0.5829145728643216,0.4153225806451613,0.3131170662905501,0.5633986928104575,0.5304621848739496,1,R,asd
0.5879396984924623,0.4475806451612903,0.32722143864598024,0.6065359477124183,0.5798319327731093,1,R,asd
0.5904522613065326,0.5080645161290323,0.3610719322990127,0.6300653594771242,0.6092436974789915,1,R,asd
0.592964824120603,0.5524193548387096,0.4019746121297602,0.6392156862745098,0.6491596638655462,1,R,asd
0.6005025125628141,0.5725806451612904,0.4217207334273625,0.6562091503267974,0.6733193277310925,1,R,asd
0.6055276381909548,0.6008064516129032,0.4527503526093089,0.6705882352941176,0.680672268907563,1,R,asd
0.6180904522613065,0.625,0.46685472496473907,0.677124183006536,0.6838235294117647,1,R,asd
0.6231155778894473,0.6370967741935484,0.5049365303244006,0.6836601307189543,0.6628151260504201,1,R,asd
0.6206030150753769,0.6411290322580645,0.5176304654442877,0.6797385620915033,0.6449579831932774,1,R,asd
0.6130653266331658,0.6330645161290323,0.5204513399153737,0.681045751633987,0.6313025210084033,1,R,asd
0.6130653266331658,0.625,0.5289139633286318,0.6915032679738562,0.6502100840336135,1,R,asd
0.6155778894472361,0.6008064516129032,0.5401974612129761,0.6993464052287581,0.6617647058823529,1,R,asd
0.6155778894472361,0.592741935483871,0.5444287729196051,0.7111111111111111,0.6764705882352942,1,R,asd
0.6206030150753769,0.5806451612903226,0.5514809590973202,0.7163398692810458,0.680672268907563,1,R,asd
0.628140703517588,0.5725806451612904,0.5613540197461213,0.7215686274509804,0.6890756302521008,1,R,asd
0.628140703517588,0.5645161290322581,0.5655853314527504,0.730718954248366,0.6911764705882353,1,R,asd
0.628140703517588,0.5524193548387096,0.5698166431593794,0.7333333333333333,0.6890756302521008,1,R,asd
0.6331658291457286,0.5483870967741935,0.5712270803949224,0.7294117647058823,0.6785714285714286,1,R,asd
0.635678391959799,0.5443548387096774,0.5825105782792666,0.7281045751633987,0.6691176470588235,1,R,asd
0.6331658291457286,0.5241935483870968,0.5853314527503526,0.7254901960784313,0.6596638655462185,1,R,asd
0.6381909547738693,0.5,0.5881523272214386,0.7098039215686275,0.6260504201680672,1,R,asd
0.6482412060301508,0.47580645161290325,0.5952045133991537,0.7006535947712418,0.5672268907563025,1,R,asd
0.6557788944723618,0.4475806451612903,0.609308885754584,0.7006535947712418,0.542016806722689,1,R,asd
0.6557788944723618,0.43548387096774194,0.6177715091678421,0.6928104575163399,0.5031512605042017,1,R,asd
0.6482412060301508,0.40725806451612906,0.6417489421720733,0.7019607843137254,0.47794117647058826,1,R,asd
0.6381909547738693,0.3790322580645161,0.6614950634696756,0.7176470588235294,0.4023109243697479,1,R,asd
0.6331658291457286,0.3709677419354839,0.692524682651622,0.7320261437908496,0.37815126050420167,1,R,asd
0.628140703517588,0.35080645161290325,0.7179125528913963,0.7333333333333333,0.3792016806722689,1,R,asd
0.6105527638190955,0.33064516129032256,0.7221438645980254,0.734640522875817,0.38865546218487396,1,R,asd
0.6030150753768844,0.3225806451612903,0.7277856135401974,0.7372549019607844,0.3855042016806723,1,R,asd
0.585427135678392,0.31451612903225806,0.7263751763046544,0.7359477124183007,0.38235294117647056,1,R,asd
0.5778894472361809,0.31048387096774194,0.7249647390691114,0.7320261437908496,0.36764705882352944,1,R,asd
0.5753768844221105,0.29435483870967744,0.7136812411847673,0.7176470588235294,0.35294117647058826,1,R,asd
0.5678391959798995,0.28225806451612906,0.6798307475317349,0.6993464052287581,0.3487394957983193,1,R,asd
0.5577889447236181,0.2701612903225806,0.6544428772919605,0.6418300653594772,0.34663865546218486,1,R,asd
0.5527638190954773,0.24193548387096775,0.6008462623413258,0.5856209150326798,0.3487394957983193,1,R,asd
0.5527638190954773,0.23387096774193547,0.5839210155148096,0.5633986928104575,0.35189075630252103,1,R,asd
0.5527638190954773,0.22580645161290322,0.5486600846262342,0.5176470588235295,0.3550420168067227,1,R,asd
0.550251256281407,0.20967741935483872,0.5119887165021156,0.4888888888888889,0.3550420168067227,1,R,asd
0.5477386934673367,0.2056451612903226,0.5007052186177715,0.45359477124183006,0.3560924369747899,1,R,asd
0.5452261306532663,0.20161290322580644,0.4823695345557123,0.4392156862745098,0.36134453781512604,1,R,asd
0.5477386934673367,0.2056451612903226,0.461212976022567,0.4326797385620915,0.36134453781512604,1,R,asd
0.5452261306532663,0.20161290322580644,0.44851904090267986,0.4143790849673203,0.3602941176470588,1,R,asd
0.5477386934673367,0.20161290322580644,0.4287729196050776,0.39477124183006534,0.35714285714285715,1,R,asd
0.542713567839196,0.1975806451612903,0.41607898448519043,0.3843137254901961,0.34978991596638653,1,R,asd
0.5402010050251256,0.1935483870967742,0.3921015514809591,0.35294117647058826,0.34243697478991597,1,R,asd
0.5326633165829145,0.1814516129032258,0.3709449929478138,0.3254901960784314,0.3392857142857143,1,R,asd
0.5251256281407035,0.1774193548387097,0.36530324400564174,0.3176470588235294,0.3392857142857143,1,R,asd
0.5226130653266332,0.1693548387096774,0.3554301833568406,0.3084967320261438,0.33613445378151263,1,R,asd
0.5125628140703518,0.16129032258064516,0.3455571227080395,0.3045751633986928,0.33508403361344535,1,R,asd
0.5025125628140703,0.14919354838709678,0.34132581100141046,0.2954248366013072,0.3329831932773109,1,R,asd
0.49748743718592964,0.125,0.3314527503526093,0.2901960784313726,0.33088235294117646,1,R,asd
0.4949748743718593,0.11290322580645161,0.32581100141043723,0.28888888888888886,0.3245798319327731,1,R,asd
0.4949748743718593,0.10483870967741936,0.3244005641748942,0.28627450980392155,0.3119747899159664,1,R,asd
0.4899497487437186,0.10080645161290322,0.3215796897038082,0.2784313725490196,0.3067226890756303,1,R,asd
0.4824120603015075,0.08870967741935484,0.31734837799717913,0.2758169934640523,0.3067226890756303,1,R,asd
0.4798994974874372,0.08870967741935484,0.3145275035260931,0.2823529411764706,0.31512605042016806,1,R,asd
0.47738693467336685,0.0846774193548387,0.3131170662905501,0.29411764705882354,0.32037815126050423,1,R,asd
0.4748743718592965,0.0846774193548387,0.3131170662905501,0.3137254901960784,0.3245798319327731,1,R,asd
0.47738693467336685,0.08870967741935484,0.31170662905500707,0.32679738562091504,0.3277310924369748,1,R,asd
0.4748743718592965,0.08870967741935484,0.31029619181946405,0.3333333333333333,0.3277310924369748,1,R,asd
0.47738693467336685,0.08870967741935484,0.31029619181946405,0.3477124183006536,0.3245798319327731,1,R,asd
0.4748743718592965,0.08870967741935484,0.31029619181946405,0.3633986928104575,0.3235294117647059,1,R,asd
0.47738693467336685,0.08870967741935484,0.3131170662905501,0.3686274509803922,0.3172268907563025,1,R,asd
0.47738693467336685,0.08870967741935484,0.3215796897038082,0.37254901960784315,0.29831932773109243,1,R,asd
0.46733668341708545,0.09274193548387097,0.32581100141043723,0.3686274509803922,0.28781512605042014,1,R,asd
0.4547738693467337,0.08870967741935484,0.32581100141043723,0.3633986928104575,0.26785714285714285,1,R,asd
0.44974874371859297,0.08870967741935484,0.3229901269393512,0.35555555555555557,0.25945378151260506,1,R,asd
0.44221105527638194,0.09274193548387097,0.32581100141043723,0.3568627450980392,0.26365546218487396,1,R,asd
0.44221105527638194,0.09274193548387097,0.32581100141043723,0.3607843137254902,0.2773109243697479,1,R,asd
0.44221105527638194,0.10080645161290322,0.3215796897038082,0.3607843137254902,0.2804621848739496,1,R,asd
0.44472361809045224,0.10080645161290322,0.3215796897038082,0.36209150326797385,0.2930672268907563,1,R,asd
0.4472361809045226,0.10483870967741936,0.3229901269393512,0.3660130718954248,0.30462184873949577,1,R,asd
0.4472361809045226,0.10483870967741936,0.3244005641748942,0.3712418300653595,0.30357142857142855,1,R,asd
0.45226130653266333,0.10483870967741936,0.32581100141043723,0.37254901960784315,0.2972689075630252,1,R,asd
0.4547738693467337,0.10887096774193548,0.3244005641748942,0.3673202614379085,0.29096638655462187,1,R,asd
0.4547738693467337,0.10887096774193548,0.3244005641748942,0.36470588235294116,0.28991596638655465,1,R,asd
0.457286432160804,0.10483870967741936,0.3244005641748942,0.3660130718954248,0.29096638655462187,1,R,asd
0.4547738693467337,0.10483870967741936,0.3215796897038082,0.3633986928104575,0.2920168067226891,1,R,asd
0.457286432160804,0.10080645161290322,0.3145275035260931,0.3568627450980392,0.29516806722689076,1,R,asd
0.457286432160804,0.0967741935483871,0.306064880112835,0.3281045751633987,0.29831932773109243,1,R,asd
0.4547738693467337,0.08870967741935484,0.2849083215796897,0.28627450980392155,0.29936974789915966,1,R,asd
0.4472361809045226,0.07661290322580645,0.2750352609308886,0.2679738562091503,0.29831932773109243,1,R,asd
0.44472361809045224,0.07258064516129033,0.2524682651622003,0.23529411764705882,0.29831932773109243,1,R,asd
0.4371859296482412,0.06451612903225806,0.22849083215796898,0.2222222222222222,0.29936974789915966,1,R,asd
0.43467336683417085,0.06048387096774194,0.21720733427362482,0.20392156862745098,0.3014705882352941,1,R,asd
0.4296482412060301,0.056451612903225805,0.19322990126939352,0.1934640522875817,0.3067226890756303,1,R,asd
0.41708542713567837,0.04435483870967742,0.17348377997179126,0.18823529411764706,0.30987394957983194,1,R,asd
0.40703517587939697,0.04032258064516129,0.16643159379407615,0.18169934640522875,0.32037815126050423,1,R,asd
0.4045226130653266,0.036290322580645164,0.153737658674189,0.17647058823529413,0.32563025210084034,1,R,asd
0.39949748743718594,0.028225806451612902,0.14809590973201692,0.17516339869281045,0.3277310924369748,1,R,asd
0.39195979899497485,0.028225806451612902,0.1368124118476728,0.16732026143790849,0.33508403361344535,1,R,asd
0.3768844221105528,0.016129032258064516,0.12834978843441466,0.1568627450980392,0.34978991596638653,1,R,asd
0.36432160804020103,0.012096774193548387,0.1227080394922426,0.15163398692810456,0.41491596638655465,1,R,asd
0.3592964824120603,0.012096774193548387,0.1156558533145275,0.14248366013071895,0.43907563025210083,1,R,asd
0.36180904522613067,0.020161290322580645,0.11283497884344147,0.1411764705882353,0.43592436974789917,1,R,asd
0.3693467336683417,0.024193548387096774,0.11142454160789844,0.13725490196078433,0.4117647058823529,1,R,asd
0.3693467336683417,0.028225806451612902,0.11001410437235543,0.13333333333333333,0.3939075630252101,1,R,asd
0.3768844221105528,0.03225806451612903,0.1071932299012694,0.13333333333333333,0.34978991596638653,1,R,asd
0.39195979899497485,0.036290322580645164,0.10578279266572638,0.13856209150326798,0.3004201680672269,1,R,asd
0.4045226130653266,0.04838709677419355,0.10860366713681241,0.15163398692810456,0.28256302521008403,1,R,asd
0.41959798994974873,0.06048387096774194,0.11283497884344147,0.16470588235294117,0.2689075630252101,1,R,asd
0.4271356783919598,0.06854838709677419,0.12834978843441466,0.21176470588235294,0.3067226890756303,1,R,asd
0.44472361809045224,0.07258064516129033,0.14386459802538787,0.24183006535947713,0.3088235294117647,1,R,asd
0.457286432160804,0.07661290322580645,0.14950634696755993,0.26405228758169935,0.3025210084033613,1,R,asd
0.45979899497487436,0.0846774193548387,0.16784203102961917,0.29411764705882354,0.29411764705882354,1,R,asd
0.46733668341708545,0.10887096774193548,0.18758815232722145,0.31241830065359477,0.28991596638655465,1,R,asd
0.47738693467336685,0.13306451612903225,0.19322990126939352,0.3503267973856209,0.29411764705882354,1,R,asd
0.4824120603015075,0.17338709677419356,0.2059238363892807,0.38562091503267976,0.296218487394958,1,R,asd
0.4949748743718593,0.1935483870967742,0.2143864598025388,0.40261437908496733,0.30567226890756305,1,R,asd
0.5050251256281407,0.1975806451612903,0.24118476727785615,0.43137254901960786,0.32668067226890757,1,R,asd
0.5125628140703518,0.21774193548387097,0.27221438645980256,0.46143790849673205,0.34243697478991597,1,R,asd
0.5201005025125628,0.24596774193548387,0.2849083215796897,0.47320261437908495,0.3697478991596639,1,R,asd
0.5251256281407035,0.2540322580645161,0.31734837799717913,0.5045751633986928,0.36554621848739494,1,R,asd
0.5326633165829145,0.25806451612903225,0.34132581100141046,0.5189542483660131,0.3739495798319328,1,R,asd
0.542713567839196,0.2620967741935484,0.3511988716502116,0.5437908496732026,0.37815126050420167,1,R,asd
0.5477386934673367,0.2701612903225806,0.3638928067700987,0.5673202614379085,0.38340336134453784,1,R,asd
0.5552763819095478,0.29435483870967744,0.37799717912552894,0.5790849673202615,0.39285714285714285,1,R,asd
0.5527638190954773,0.29838709677419356,0.382228490832158,0.5882352941176471,0.3939075630252101,1,R,asd
0.550251256281407,0.29435483870967744,0.385049365303244,0.5790849673202615,0.3960084033613445,1,R,asd
0.535175879396985,0.2862903225806452,0.38081805359661497,0.5647058823529412,0.3939075630252101,1,R,asd
0.5326633165829145,0.2862903225806452,0.35966149506346967,0.5084967320261438,0.37815126050420167,1,R,asd
0.5251256281407035,0.27419354838709675,0.3300423131170663,0.48366013071895425,0.37289915966386555,1,R,asd
0.5175879396984925,0.2661290322580645,0.3159379407616361,0.4300653594771242,0.3644957983193277,1,R,asd
0.5125628140703518,0.24596774193548387,0.2947813822284908,0.38169934640522873,0.36134453781512604,1,R,asd
0.5050251256281407,0.22580645161290322,0.2750352609308886,0.36209150326797385,0.3592436974789916,1,R,asd
0.5025125628140703,0.2217741935483871,0.2693935119887165,0.3359477124183007,0.35714285714285715,1,R,asd
0.49748743718592964,0.2056451612903226,0.24400564174894218,0.3254901960784314,0.3550420168067227,1,R,asd
0.4849246231155779,0.18951612903225806,0.229901269393512,0.3215686274509804,0.35189075630252103,1,R,asd
0.4824120603015075,0.18548387096774194,0.21156558533145275,0.3176470588235294,0.3476890756302521,1,R,asd
0.4824120603015075,0.1774193548387097,0.2016925246826516,0.32287581699346407,0.3434873949579832,1,R,asd
0.47738693467336685,0.17338709677419356,0.19746121297602257,0.33464052287581697,0.33508403361344535,1,R,asd
0.47738693467336685,0.1693548387096774,0.1918194640338505,0.34248366013071896,0.32563025210084034,1,R,asd
0.4748743718592965,0.1693548387096774,0.18758815232722145,0.3464052287581699,0.3224789915966387,1,R,asd
0.4723618090452261,0.16532258064516128,0.1847672778561354,0.3516339869281046,0.3161764705882353,1,R,asd
0.46984924623115576,0.14919354838709678,0.1777150916784203,0.3464052287581699,0.3130252100840336,1,R,asd
0.4623115577889447,0.13306451612903225,0.17348377997179126,0.3437908496732026,0.30987394957983194,1,R,asd
0.4623115577889447,0.12903225806451613,0.16784203102961917,0.34901960784313724,0.3077731092436975,1,R,asd
0.4648241206030151,0.125,0.16361071932299012,0.3542483660130719,0.3088235294117647,1,R,asd
0.45979899497487436,0.11693548387096774,0.1622002820874471,0.3516339869281046,0.31092436974789917,1,R,asd
0.457286432160804,0.11290322580645161,0.1622002820874471,0.3503267973856209,0.31092436974789917,1,R,asd
0.45226130653266333,0.10483870967741936,0.15796897038081806,0.3477124183006536,0.31092436974789917,1,R,asd
0.4547738693467337,0.10080645161290322,0.15655853314527504,0.3464052287581699,0.3130252100840336,1,R,asd
0.4547738693467337,0.10080645161290322,0.153737658674189,0.3464052287581699,0.3161764705882353,1,R,asd
0.4547738693467337,0.10483870967741936,0.15514809590973203,0.3464052287581699,0.32037815126050423,1,R,asd
0.457286432160804,0.10080645161290322,0.15514809590973203,0.34509803921568627,0.32037815126050423,1,R,asd
0.4547738693467337,0.0967741935483871,0.153737658674189,0.338562091503268,0.32037815126050423,1,R,asd
0.45226130653266333,0.08870967741935484,0.152327221438646,0.3359477124183007,0.3182773109243697,1,R,asd
0.44974874371859297,0.08870967741935484,0.14950634696755993,0.330718954248366,0.3182773109243697,1,R,asd
0.4472361809045226,0.09274193548387097,0.1466854724964739,0.32679738562091504,0.3182773109243697,1,R,asd
0.4472361809045226,0.0846774193548387,0.14386459802538787,0.3150326797385621,0.31407563025210083,1,R,asd
0.44472361809045224,0.07258064516129033,0.1382228490832158,0.30196078431372547,0.30987394957983194,1,R,asd
0.4371859296482412,0.06048387096774194,0.13399153737658676,0.2954248366013072,0.31092436974789917,1,R,asd
0.43467336683417085,0.06048387096774194,0.1325811001410437,0.2784313725490196,0.30987394957983194,1,R,asd
0.4296482412060301,0.056451612903225805,0.12693935119887165,0.265359477124183,0.3077731092436975,1,R,asd
0.41457286432160806,0.04838709677419355,0.12411847672778561,0.257516339869281,0.3014705882352941,1,R,asd
0.40703517587939697,0.04435483870967742,0.11706629055007052,0.23790849673202613,0.29831932773109243,1,R,asd
0.3969849246231156,0.04435483870967742,0.11001410437235543,0.22483660130718955,0.29831932773109243,1,R,asd
0.38944723618090454,0.04435483870967742,0.1071932299012694,0.2196078431372549,0.296218487394958,1,R,asd
0.3844221105527638,0.04435483870967742,0.10155148095909731,0.20784313725490197,0.2930672268907563,1,R,asd
0.3743718592964824,0.04435483870967742,0.09732016925246827,0.20130718954248367,0.29096638655462187,1,R,asd
0.36683417085427134,0.04838709677419355,0.09590973201692525,0.19215686274509805,0.2867647058823529,1,R,asd
0.36180904522613067,0.04838709677419355,0.09026798307475317,0.17647058823529413,0.2846638655462185,1,R,asd
0.35678391959798994,0.05241935483870968,0.08603667136812412,0.17254901960784313,0.27941176470588236,1,R,asd
0.35175879396984927,0.056451612903225805,0.08321579689703808,0.16470588235294117,0.27521008403361347,1,R,asd
0.3492462311557789,0.06048387096774194,0.08180535966149506,0.14901960784313725,0.27415966386554624,1,R,asd
0.3492462311557789,0.056451612903225805,0.08180535966149506,0.13725490196078433,0.27310924369747897,1,R,asd
0.3492462311557789,0.05241935483870968,0.08039492242595205,0.13594771241830064,0.27205882352941174,1,R,asd
0.3442211055276382,0.04838709677419355,0.07898448519040903,0.13594771241830064,0.2699579831932773,1,R,asd
0.33668341708542715,0.05241935483870968,0.076163610719323,0.134640522875817,0.2657563025210084,1,R,asd
0.3316582914572864,0.06048387096774194,0.07475317348377997,0.134640522875817,0.26365546218487396,1,R,asd
0.3316582914572864,0.05241935483870968,0.07757404795486601,0.13594771241830064,0.26365546218487396,1,R,asd
0.3316582914572864,0.04838709677419355,0.076163610719323,0.13856209150326798,0.26365546218487396,1,R,asd
0.3316582914572864,0.04435483870967742,0.076163610719323,0.13594771241830064,0.2657563025210084,1,R,asd
0.3316582914572864,0.04032258064516129,0.07475317348377997,0.134640522875817,0.2647058823529412,1,R,asd
0.32914572864321606,0.04032258064516129,0.07193229901269393,0.12418300653594772,0.26365546218487396,1,R,asd
0.32914572864321606,0.03225806451612903,0.07193229901269393,0.11633986928104575,0.2647058823529412,1,R,asd
0.3341708542713568,0.028225806451612902,0.07193229901269393,0.11372549019607843,0.2657563025210084,1,R,asd
0.3341708542713568,0.024193548387096774,0.07052186177715092,0.12287581699346405,0.25840336134453784,1,R,asd
0.33668341708542715,0.016129032258064516,0.06629055007052186,0.13725490196078433,0.25315126050420167,1,R,asd
0.3442211055276382,0.016129032258064516,0.06629055007052186,0.19738562091503267,0.25630252100840334,1,R,asd
0.3542713567839196,0.008064516129032258,0.076163610719323,0.2169934640522876,0.27205882352941174,1,R,asd
0.36432160804020103,0.012096774193548387,0.07898448519040903,0.21568627450980393,0.2804621848739496,1,R,asd
0.36432160804020103,0.012096774193548387,0.08180535966149506,0.22091503267973855,0.29936974789915966,1,R,asd
0.36432160804020103,0.012096774193548387,0.08603667136812412,0.23921568627450981,0.3067226890756303,1,R,asd
0.36683417085427134,0.020161290322580645,0.08885754583921016,0.25620915032679736,0.3224789915966387,1,R,asd
0.36432160804020103,0.020161290322580645,0.09732016925246827,0.29673202614379085,0.34663865546218486,1,R,asd
0.36432160804020103,0.016129032258064516,0.10155148095909731,0.31633986928104574,0.3550420168067227,1,R,asd
0.3592964824120603,0.020161290322580645,0.1071932299012694,0.31895424836601305,0.36659663865546216,1,R,asd
0.3592964824120603,0.024193548387096774,0.11424541607898449,0.32287581699346407,0.3697478991596639,1,R,asd
0.35678391959798994,0.028225806451612902,0.11847672778561354,0.3241830065359477,0.3697478991596639,1,R,asd
0.35175879396984927,0.028225806451612902,0.1227080394922426,0.32287581699346407,0.3697478991596639,1,R,asd
0.35175879396984927,0.028225806451612902,0.12552891396332863,0.3111111111111111,0.36659663865546216,1,R,asd
0.3417085427135678,0.028225806451612902,0.12693935119887165,0.30196078431372547,0.36239495798319327,1,R,asd
0.3391959798994975,0.028225806451612902,0.12552891396332863,0.2875816993464052,0.3581932773109244,1,R,asd
0.33668341708542715,0.036290322580645164,0.12129760225669958,0.27450980392156865,0.3560924369747899,1,R,asd
0.3241206030150754,0.04838709677419355,0.11988716502115655,0.265359477124183,0.35294117647058826,1,R,asd
0.32160804020100503,0.05241935483870968,0.12129760225669958,0.2549019607843137,0.34978991596638653,1,R,asd
0.30904522613065327,0.06048387096774194,0.11847672778561354,0.25098039215686274,0.34978991596638653,1,R,asd
0.3065326633165829,0.06854838709677419,0.11706629055007052,0.24444444444444444,0.3476890756302521,1,R,asd
0.30402010050251255,0.08064516129032258,0.11706629055007052,0.23790849673202613,0.34558823529411764,1,R,asd
0.29396984924623115,0.10483870967741936,0.12129760225669958,0.23529411764705882,0.34558823529411764,1,R,asd
0.2889447236180904,0.11290322580645161,0.12129760225669958,0.23006535947712417,0.3445378151260504,1,R,asd
0.28391959798994976,0.13306451612903225,0.11847672778561354,0.23006535947712417,0.3445378151260504,1,R,asd
0.27386934673366836,0.1532258064516129,0.11706629055007052,0.23006535947712417,0.34558823529411764,1,R,asd
0.271356783919598,0.16129032258064516,0.11847672778561354,0.23137254901960785,0.34558823529411764,1,R,asd
0.2638190954773869,0.16532258064516128,0.1227080394922426,0.2326797385620915,0.34558823529411764,1,R,asd
0.2613065326633166,0.16532258064516128,0.12693935119887165,0.2326797385620915,0.34558823529411764,1,R,asd
0.2613065326633166,0.16532258064516128,0.12693935119887165,0.23660130718954248,0.3476890756302521,1,R,asd
0.2613065326633166,0.16532258064516128,0.13399153737658676,0.23790849673202613,0.3487394957983193,1,R,asd
0.2613065326633166,0.16129032258064516,0.13399153737658676,0.23790849673202613,0.34978991596638653,1,R,asd
0.2638190954773869,0.16129032258064516,0.13399153737658676,0.24052287581699347,0.34978991596638653,1,R,asd
0.2638190954773869,0.16129032258064516,0.1368124118476728,0.24183006535947713,0.35084033613445376,1,R,asd
0.25879396984924624,0.15725806451612903,0.13540197461212977,0.24052287581699347,0.34978991596638653,1,R,asd
0.2562814070351759,0.16129032258064516,0.1382228490832158,0.23921568627450981,0.35084033613445376,1,R,asd
0.2537688442211055,0.16532258064516128,0.14104372355430184,0.23921568627450981,0.35084033613445376,1,R,asd
0.2562814070351759,0.1693548387096774,0.14104372355430184,0.23660130718954248,0.35084033613445376,1,R,asd
0.25125628140703515,0.17338709677419356,0.14104372355430184,0.23529411764705882,0.34978991596638653,1,R,asd
0.24874371859296482,0.17338709677419356,0.14104372355430184,0.23529411764705882,0.34978991596638653,1,R,asd
0.24874371859296482,0.17338709677419356,0.14245416078984485,0.2326797385620915,0.34978991596638653,1,R,asd
0.24623115577889448,0.1693548387096774,0.14104372355430184,0.23137254901960785,0.3487394957983193,1,R,asd
0.24623115577889448,0.1693548387096774,0.1368124118476728,0.23006535947712417,0.3487394957983193,1,R,asd
0.24120603015075376,0.1693548387096774,0.14245416078984485,0.2326797385620915,0.3476890756302521,1,R,asd
0.23618090452261306,0.16129032258064516,0.14245416078984485,0.2326797385620915,0.34663865546218486,1,R,asd
0.23366834170854273,0.16129032258064516,0.1382228490832158,0.22745098039215686,0.34663865546218486,1,R,asd
0.23115577889447236,0.15725806451612903,0.1382228490832158,0.2235294117647059,0.34663865546218486,1,R,asd
0.23366834170854273,0.16532258064516128,0.1382228490832158,0.2235294117647059,0.34558823529411764,1,R,asd
0.23115577889447236,0.16532258064516128,0.1382228490832158,0.22091503267973855,0.3445378151260504,1,R,asd
0.228643216080402,0.16129032258064516,0.13540197461212977,0.2196078431372549,0.3445378151260504,1,R,asd
0.22613065326633167,0.16129032258064516,0.1311706629055007,0.2222222222222222,0.3434873949579832,1,R,asd
0.22613065326633167,0.16129032258064516,0.1311706629055007,0.2261437908496732,0.3434873949579832,1,R,asd
0.23366834170854273,0.16129032258064516,0.12976022566995768,0.22875816993464052,0.3445378151260504,1,R,asd
0.23366834170854273,0.16129032258064516,0.12976022566995768,0.22745098039215686,0.3445378151260504,1,R,asd
0.23366834170854273,0.16129032258064516,0.12834978843441466,0.22745098039215686,0.3445378151260504,1,R,asd
0.23366834170854273,0.16129032258064516,0.12834978843441466,0.22875816993464052,0.34558823529411764,1,R,asd
0.23366834170854273,0.16532258064516128,0.1311706629055007,0.23006535947712417,0.34663865546218486,1,R,asd
0.23366834170854273,0.16532258064516128,0.1368124118476728,0.23137254901960785,0.3476890756302521,1,R,asd
0.23618090452261306,0.17338709677419356,0.13963328631875882,0.2326797385620915,0.3476890756302521,1,R,asd
0.23618090452261306,0.17338709677419356,0.14527503526093088,0.23398692810457516,0.3487394957983193,1,R,asd
0.24120603015075376,0.1774193548387097,0.1466854724964739,0.23529411764705882,0.3487394957983193,1,R,asd
0.24120603015075376,0.1774193548387097,0.1466854724964739,0.23790849673202613,0.35084033613445376,1,R,asd
0.24371859296482412,0.1814516129032258,0.15655853314527504,0.24444444444444444,0.35084033613445376,1,R,asd
0.24371859296482412,0.1935483870967742,0.1607898448519041,0.24705882352941178,0.35189075630252103,1,R,asd
0.24371859296482412,0.1935483870967742,0.15796897038081806,0.24836601307189543,0.35189075630252103,1,R,asd
0.24371859296482412,0.18951612903225806,0.153737658674189,0.24836601307189543,0.35189075630252103,1,R,asd
0.24371859296482412,0.18951612903225806,0.153737658674189,0.24705882352941178,0.35189075630252103,1,R,asd
0.24120603015075376,0.18548387096774194,0.15655853314527504,0.2457516339869281,0.35294117647058826,1,R,asd
0.24120603015075376,0.18548387096774194,0.14386459802538787,0.24444444444444444,0.35189075630252103,1,R,asd
0.23618090452261306,0.18548387096774194,0.1368124118476728,0.23660130718954248,0.34978991596638653,1,R,asd
0.23115577889447236,0.18951612903225806,0.12129760225669958,0.2326797385620915,0.3487394957983193,1,R,asd
0.22613065326633167,0.1975806451612903,0.11001410437235543,0.2326797385620915,0.3476890756302521,1,R,asd
0.22110552763819097,0.20161290322580644,0.10578279266572638,0.22875816993464052,0.34558823529411764,1,R,asd
0.22110552763819097,0.21370967741935484,0.09590973201692525,0.2261437908496732,0.3445378151260504,1,R,asd
0.2185929648241206,0.21774193548387097,0.09167842031029619,0.22483660130718955,0.34138655462184875,1,R,asd
0.2236180904522613,0.21370967741935484,0.08885754583921016,0.2261437908496732,0.3392857142857143,1,R,asd
0.2236180904522613,0.2056451612903226,0.0846262341325811,0.22745098039215686,0.3403361344537815,1,R,asd
0.23115577889447236,0.1975806451612903,0.08321579689703808,0.22745098039215686,0.3392857142857143,1,R,asd
0.23115577889447236,0.1975806451612903,0.08321579689703808,0.22745098039215686,0.3392857142857143,1,R,asd
0.23366834170854273,0.18951612903225806,0.08603667136812412,0.22875816993464052,0.3392857142857143,1,R,asd
0.23618090452261306,0.18548387096774194,0.08603667136812412,0.22875816993464052,0.3392857142857143,1,R,asd
0.23366834170854273,0.18951612903225806,0.08180535966149506,0.23006535947712417,0.3403361344537815,1,R,asd
0.23618090452261306,0.18951612903225806,0.08603667136812412,0.2326797385620915,0.3403361344537815,1,R,asd
0.23869346733668342,0.18951612903225806,0.09167842031029619,0.23921568627450981,0.34243697478991597,1,R,asd
0.23618090452261306,0.1814516129032258,0.11706629055007052,0.25098039215686274,0.3445378151260504,1,R,asd
0.23366834170854273,0.17338709677419356,0.13399153737658676,0.25882352941176473,0.3487394957983193,1,R,asd
0.23366834170854273,0.1693548387096774,0.15655853314527504,0.27058823529411763,0.3539915966386555,1,R,asd
0.23366834170854273,0.17338709677419356,0.16643159379407615,0.2758169934640523,0.3560924369747899,1,R,asd
0.23115577889447236,0.18548387096774194,0.16784203102961917,0.27712418300653596,0.3592436974789916,1,R,asd
0.23115577889447236,0.18951612903225806,0.1763046544428773,0.2823529411764706,0.36239495798319327,1,R,asd
0.23115577889447236,0.18951612903225806,0.18194640338504936,0.28366013071895424,0.3634453781512605,1,R,asd
0.23115577889447236,0.18951612903225806,0.18194640338504936,0.2875816993464052,0.3644957983193277,1,R,asd
0.228643216080402,0.1935483870967742,0.18335684062059238,0.28888888888888886,0.36659663865546216,1,R,asd
0.22613065326633167,0.1975806451612903,0.18899858956276447,0.2928104575163399,0.36764705882352944,1,R,asd
0.22110552763819097,0.2056451612903226,0.1918194640338505,0.3006535947712418,0.36764705882352944,1,R,asd
0.2185929648241206,0.2056451612903226,0.19605077574047955,0.3045751633986928,0.36764705882352944,1,R,asd
0.2135678391959799,0.1975806451612903,0.19887165021156558,0.30718954248366015,0.36869747899159666,1,R,asd
0.20854271356783918,0.1935483870967742,0.2059238363892807,0.3058823529411765,0.3697478991596639,1,R,asd
0.20351758793969849,0.18951612903225806,0.2059238363892807,0.3084967320261438,0.3697478991596639,1,R,asd
0.1984924623115578,0.1935483870967742,0.2059238363892807,0.3111111111111111,0.3697478991596639,1,R,asd
0.19597989949748743,0.1935483870967742,0.20310296191819463,0.30980392156862746,0.36869747899159666,1,R,asd
0.1884422110552764,0.1935483870967742,0.19887165021156558,0.30980392156862746,0.36764705882352944,1,R,asd
0.17839195979899497,0.1975806451612903,0.19746121297602257,0.3084967320261438,0.36764705882352944,1,R,asd
0.17336683417085427,0.20161290322580644,0.2059238363892807,0.3111111111111111,0.36869747899159666,1,R,asd
0.16834170854271358,0.2217741935483871,0.2059238363892807,0.31241830065359477,0.36869747899159666,1,R,asd
0.16080402010050251,0.22983870967741934,0.21720733427362482,0.3137254901960784,0.36869747899159666,1,R,asd
0.15829145728643215,0.22983870967741934,0.2157968970380818,0.31633986928104574,0.36869747899159666,1,R,asd
0.15577889447236182,0.22580645161290322,0.2143864598025388,0.31633986928104574,0.3697478991596639,1,R,asd
0.15829145728643215,0.21774193548387097,0.21297602256699577,0.3150326797385621,0.3697478991596639,1,R,asd
0.15829145728643215,0.20967741935483872,0.2157968970380818,0.3150326797385621,0.3697478991596639,1,R,asd
0.15577889447236182,0.20967741935483872,0.2157968970380818,0.31633986928104574,0.3707983193277311,1,R,asd
0.15577889447236182,0.1975806451612903,0.21156558533145275,0.31633986928104574,0.3707983193277311,1,R,asd
0.1507537688442211,0.1935483870967742,0.20451339915373765,0.3150326797385621,0.3707983193277311,1,R,asd
0.14824120603015076,0.18951612903225806,0.2016925246826516,0.31241830065359477,0.3697478991596639,1,R,asd
0.14824120603015076,0.1975806451612903,0.19464033850493653,0.3084967320261438,0.36869747899159666,1,R,asd
0.1407035175879397,0.2217741935483871,0.19322990126939352,0.3058823529411765,0.36764705882352944,1,R,asd
0.1407035175879397,0.22983870967741934,0.19322990126939352,0.30196078431372547,0.36554621848739494,1,R,asd
0.14321608040201006,0.23790322580645162,0.19322990126939352,0.3006535947712418,0.36554621848739494,1,R,asd
0.1457286432160804,0.23790322580645162,0.19464033850493653,0.2980392156862745,0.36554621848739494,1,R,asd
0.14824120603015076,0.23387096774193547,0.19322990126939352,0.29411764705882354,0.3644957983193277,1,R,asd
0.1507537688442211,0.23790322580645162,0.19322990126939352,0.2901960784313726,0.3634453781512605,1,R,asd
0.1507537688442211,0.23387096774193547,0.19322990126939352,0.2823529411764706,0.36134453781512604,1,R,asd
0.1507537688442211,0.22580645161290322,0.19040902679830748,0.2784313725490196,0.3592436974789916,1,R,asd
0.1507537688442211,0.2217741935483871,0.1861777150916784,0.27712418300653596,0.3581932773109244,1,R,asd
0.15326633165829145,0.2217741935483871,0.1861777150916784,0.27320261437908494,0.35714285714285715,1,R,asd
0.1507537688442211,0.22983870967741934,0.18194640338504936,0.27058823529411763,0.3560924369747899,1,R,asd
0.1507537688442211,0.23387096774193547,0.18335684062059238,0.269281045751634,0.3550420168067227,1,R,asd
0.15326633165829145,0.23387096774193547,0.1847672778561354,0.27058823529411763,0.3550420168067227,1,R,asd
0.15577889447236182,0.23387096774193547,0.18335684062059238,0.27058823529411763,0.3550420168067227,1,R,asd
0.16080402010050251,0.22580645161290322,0.18335684062059238,0.27058823529411763,0.3560924369747899,1,R,asd
0.16331658291457288,0.2217741935483871,0.18194640338504936,0.269281045751634,0.3550420168067227,1,R,asd
0.1708542713567839,0.21774193548387097,0.1847672778561354,0.269281045751634,0.3550420168067227,1,R,asd
0.17336683417085427,0.21774193548387097,0.1847672778561354,0.27058823529411763,0.3539915966386555,1,R,asd
0.17587939698492464,0.21370967741935484,0.18335684062059238,0.27058823529411763,0.3539915966386555,1,R,asd
0.18090452261306533,0.20967741935483872,0.18194640338504936,0.269281045751634,0.3539915966386555,1,R,asd
0.18341708542713567,0.20967741935483872,0.18053596614950634,0.269281045751634,0.35294117647058826,1,R,asd
0.18592964824120603,0.20967741935483872,0.18194640338504936,0.269281045751634,0.35294117647058826,1,R,asd
0.18592964824120603,0.20161290322580644,0.18335684062059238,0.269281045751634,0.35189075630252103,1,R,asd
0.1884422110552764,0.20161290322580644,0.18194640338504936,0.269281045751634,0.35189075630252103,1,R,asd
0.19095477386934673,0.18951612903225806,0.18335684062059238,0.269281045751634,0.35189075630252103,1,R,asd
0.1934673366834171,0.18951612903225806,0.1847672778561354,0.2679738562091503,0.35189075630252103,1,R,asd
0.1934673366834171,0.1935483870967742,0.1847672778561354,0.2679738562091503,0.35189075630252103,1,R,asd
0.1934673366834171,0.1935483870967742,0.1861777150916784,0.2679738562091503,0.35084033613445376,1,R,asd
0.1934673366834171,0.18951612903225806,0.1861777150916784,0.2679738562091503,0.35189075630252103,1,R,asd
0.19597989949748743,0.18951612903225806,0.1861777150916784,0.2679738562091503,0.35189075630252103,1,R,asd
0.1984924623115578,0.1935483870967742,0.18758815232722145,0.2679738562091503,0.35189075630252103,1,R,asd
0.19597989949748743,0.1935483870967742,0.18758815232722145,0.26666666666666666,0.35189075630252103,1,R,asd
0.19597989949748743,0.18951612903225806,0.18899858956276447,0.2679738562091503,0.35189075630252103,1,R,asd
0.19597989949748743,0.18548387096774194,0.18899858956276447,0.2679738562091503,0.35189075630252103,1,R,asd
0.19597989949748743,0.18548387096774194,0.18899858956276447,0.26666666666666666,0.35189075630252103,1,R,asd
0.20100502512562815,0.18548387096774194,0.18758815232722145,0.26666666666666666,0.35189075630252103,1,R,asd
0.1984924623115578,0.18548387096774194,0.18758815232722145,0.26666666666666666,0.35189075630252103,1,R,asd
0.1984924623115578,0.1814516129032258,0.18758815232722145,0.26666666666666666,0.35189075630252103,1,R,asd
0.1984924623115578,0.1814516129032258,0.1861777150916784,0.26666666666666666,0.35189075630252103,1,R,asd
0.1984924623115578,0.1814516129032258,0.1861777150916784,0.26666666666666666,0.35189075630252103,1,R,asd
0.20100502512562815,0.1814516129032258,0.1861777150916784,0.26666666666666666,0.35189075630252103,1,R,asd
0.1984924623115578,0.18548387096774194,0.1847672778561354,0.26666666666666666,0.35189075630252103,1,R,asd
0.1984924623115578,0.1814516129032258,0.18758815232722145,0.26666666666666666,0.35189075630252103,1,R,asd
0.1984924623115578,0.1814516129032258,0.1861777150916784,0.2679738562091503,0.35189075630252103,1,R,asd
0.19597989949748743,0.1774193548387097,0.1861777150916784,0.26666666666666666,0.35189075630252103,1,R,asd
0.1984924623115578,0.1774193548387097,0.1861777150916784,0.26666666666666666,0.35189075630252103,1,R,asd
0.1984924623115578,0.1814516129032258,0.1861777150916784,0.26666666666666666,0.35189075630252103,1,R,asd
0.1984924623115578,0.1814516129032258,0.1861777150916784,0.265359477124183,0.35189075630252103,1,R,asd
0.1984924623115578,0.1774193548387097,0.1861777150916784,0.26666666666666666,0.35189075630252103,1,R,asd
0.19597989949748743,0.1774193548387097,0.1861777150916784,0.26666666666666666,0.35189075630252103,1,R,asd
0.1984924623115578,0.17338709677419356,0.1861777150916784,0.26666666666666666,0.35189075630252103,1,R,asd
0.20100502512562815,0.1774193548387097,0.1847672778561354,0.26666666666666666,0.35189075630252103,1,R,asd
0.1984924623115578,0.1814516129032258,0.1861777150916784,0.265359477124183,0.35189075630252103,1,R,asd
0.1984924623115578,0.1774193548387097,0.1861777150916784,0.26666666666666666,0.35084033613445376,1,R,asd
0.19597989949748743,0.1774193548387097,0.1861777150916784,0.2679738562091503,0.35189075630252103,1,R,asd
0.1984924623115578,0.1774193548387097,0.1861777150916784,0.265359477124183,0.35189075630252103,1,R,asd
0.1984924623115578,0.1774193548387097,0.1847672778561354,0.26666666666666666,0.35189075630252103,1,R,asd
0.1984924623115578,0.1814516129032258,0.1861777150916784,0.265359477124183,0.35189075630252103,1,R,asd
0.1984924623115578,0.1774193548387097,0.18758815232722145,0.26666666666666666,0.35189075630252103,1,R,asd
0.19597989949748743,0.1774193548387097,0.1861777150916784,0.26666666666666666,0.35189075630252103,1,R,asd
0.1984924623115578,0.17338709677419356,0.1861777150916784,0.26666666666666666,0.35189075630252103,1,R,asd
0.1984924623115578,0.1774193548387097,0.1861777150916784,0.26666666666666666,0.35189075630252103,1,R,asd
0.1984924623115578,0.1814516129032258,0.1861777150916784,0.265359477124183,0.35189075630252103,1,R,asd
0.1984924623115578,0.1774193548387097,0.1861777150916784,0.265359477124183,0.35189075630252103,1,R,asd
0.1984924623115578,0.1774193548387097,0.1861777150916784,0.26666666666666666,0.35189075630252103,1,R,asd
0.1984924623115578,0.17338709677419356,0.1861777150916784,0.26666666666666666,0.35294117647058826,1,R,asd
0.20100502512562815,0.17338709677419356,0.1847672778561354,0.265359477124183,0.35294117647058826,1,R,asd
0.1984924623115578,0.1814516129032258,0.1861777150916784,0.265359477124183,0.35189075630252103,1,R,asd
0.1984924623115578,0.1774193548387097,0.1861777150916784,0.265359477124183,0.35189075630252103,1,R,asd
0.1984924623115578,0.1774193548387097,0.1861777150916784,0.26666666666666666,0.35189075630252103,1,R,asd
0.1984924623115578,0.17338709677419356,0.1847672778561354,0.26666666666666666,0.35294117647058826,1,R,asd
0.20100502512562815,0.1774193548387097,0.1847672778561354,0.26666666666666666,0.35294117647058826,1,R,asd
0.20100502512562815,0.1774193548387097,0.1847672778561354,0.26666666666666666,0.35189075630252103,1,R,asd
0.20100502512562815,0.1774193548387097,0.1861777150916784,0.265359477124183,0.35189075630252103,1,R,asd
0.20100502512562815,0.1774193548387097,0.1861777150916784,0.26666666666666666,0.35189075630252103,1,R,asd
0.1984924623115578,0.1774193548387097,0.1861777150916784,0.26666666666666666,0.35294117647058826,1,R,asd
0.20100502512562815,0.17338709677419356,0.1861777150916784,0.26666666666666666,0.35294117647058826,1,R,asd
0.20100502512562815,0.1774193548387097,0.1847672778561354,0.26666666666666666,0.35189075630252103,1,R,asd
0.1984924623115578,0.1774193548387097,0.1861777150916784,0.26666666666666666,0.35189075630252103,1,R,asd
0.20100502512562815,0.1774193548387097,0.1861777150916784,0.26666666666666666,0.35189075630252103,1,R,asd
0.1984924623115578,0.1774193548387097,0.1847672778561354,0.26666666666666666,0.35294117647058826,1,R,asd
0.20100502512562815,0.17338709677419356,0.1847672778561354,0.26666666666666666,0.35294117647058826,1,R,asd
0.20100502512562815,0.1774193548387097,0.1847672778561354,0.26666666666666666,0.35189075630252103,1,R,asd
0.20100502512562815,0.1774193548387097,0.1861777150916784,0.265359477124183,0.35189075630252103,1,R,asd
0.20100502512562815,0.17338709677419356,0.1861777150916784,0.26666666666666666,0.35189075630252103,1,R,asd
0.1984924623115578,0.17338709677419356,0.1861777150916784,0.2679738562091503,0.35294117647058826,1,R,asd
0.1984924623115578,0.17338709677419356,0.1861777150916784,0.26666666666666666,0.35294117647058826,1,R,asd
0.20100502512562815,0.17338709677419356,0.1847672778561354,0.26666666666666666,0.35189075630252103,1,R,asd
0.20100502512562815,0.17338709677419356,0.1861777150916784,0.26666666666666666,0.35189075630252103,1,R,asd
0.20100502512562815,0.1774193548387097,0.18758815232722145,0.265359477124183,0.35189075630252103,1,R,asd
0.1984924623115578,0.17338709677419356,0.1861777150916784,0.2679738562091503,0.35294117647058826,1,R,asd
0.1984924623115578,0.1693548387096774,0.1847672778561354,0.26666666666666666,0.35294117647058826,1,R,asd
0.20100502512562815,0.1693548387096774,0.1847672778561354,0.26666666666666666,0.35294117647058826,1,R,asd
0.20100502512562815,0.17338709677419356,0.1847672778561354,0.265359477124183,0.35189075630252103,1,R,asd
0.1984924623115578,0.17338709677419356,0.1847672778561354,0.265359477124183,0.35189075630252103,1,R,asd
0.1984924623115578,0.17338709677419356,0.1847672778561354,0.26666666666666666,0.35189075630252103,1,R,asd
0.20100502512562815,0.17338709677419356,0.1847672778561354,0.26666666666666666,0.35294117647058826,1,R,asd
0.20351758793969849,0.17338709677419356,0.1847672778561354,0.26666666666666666,0.35294117647058826,1,R,asd
0.20100502512562815,0.17338709677419356,0.1847672778561354,0.26666666666666666,0.35294117647058826,1,R,asd
0.20100502512562815,0.1774193548387097,0.1861777150916784,0.26666666666666666,0.35294117647058826,1,R,asd
0.20100502512562815,0.17338709677419356,0.1861777150916784,0.26666666666666666,0.35189075630252103,1,R,asd
0.20100502512562815,0.17338709677419356,0.1847672778561354,0.26666666666666666,0.35189075630252103,1,R,asd
0.20100502512562815,0.17338709677419356,0.1847672778561354,0.26666666666666666,0.35294117647058826,1,R,asd
0.20100502512562815,0.17338709677419356,0.18335684062059238,0.26666666666666666,0.35189075630252103,1,R,asd
0.20100502512562815,0.17338709677419356,0.1847672778561354,0.265359477124183,0.35189075630252103,1,R,asd
0.20100502512562815,0.17338709677419356,0.1861777150916784,0.26666666666666666,0.35189075630252103,1,R,asd
0.1984924623115578,0.17338709677419356,0.1847672778561354,0.26666666666666666,0.35294117647058826,1,R,asd
0.20100502512562815,0.1693548387096774,0.1847672778561354,0.26666666666666666,0.35189075630252103,1,R,asd
0.20100502512562815,0.17338709677419356,0.1847672778561354,0.26666666666666666,0.35189075630252103,1,R,asd
0.20100502512562815,0.17338709677419356,0.1847672778561354,0.265359477124183,0.35294117647058826,1,R,asd
0.20100502512562815,0.17338709677419356,0.1847672778561354,0.26666666666666666,0.35294117647058826,1,R,asd
0.20100502512562815,0.17338709677419356,0.1861777150916784,0.2679738562091503,0.35294117647058826,1,R,asd
0.20100502512562815,0.1693548387096774,0.1847672778561354,0.26666666666666666,0.35294117647058826,1,R,asd
0.20100502512562815,0.17338709677419356,0.1847672778561354,0.26666666666666666,0.35294117647058826,1,R,asd
0.20100502512562815,0.1774193548387097,0.1847672778561354,0.265359477124183,0.35189075630252103,1,R,asd
0.20100502512562815,0.17338709677419356,0.1861777150916784,0.26666666666666666,0.35189075630252103,1,R,asd
0.1984924623115578,0.17338709677419356,0.1861777150916784,0.2679738562091503,0.35189075630252103,1,R,asd
0.1984924623115578,0.17338709677419356,0.1847672778561354,0.26666666666666666,0.35294117647058826,1,R,asd
0.20351758793969849,0.1693548387096774,0.1847672778561354,0.26666666666666666,0.35294117647058826,1,R,asd
0.20100502512562815,0.17338709677419356,0.1847672778561354,0.26666666666666666,0.35294117647058826,1,R,asd
0.20100502512562815,0.17338709677419356,0.1861777150916784,0.26666666666666666,0.35189075630252103,1,R,asd
0.20100502512562815,0.17338709677419356,0.1847672778561354,0.26666666666666666,0.35189075630252103,1,R,asd
0.20100502512562815,0.17338709677419356,0.1847672778561354,0.26666666666666666,0.35294117647058826,1,R,asd
0.20100502512562815,0.1693548387096774,0.1847672778561354,0.26666666666666666,0.35294117647058826,1,R,asd
0.20100502512562815,0.1774193548387097,0.1847672778561354,0.26666666666666666,0.35294117647058826,1,R,asd
0.20100502512562815,0.17338709677419356,0.1847672778561354,0.265359477124183,0.35294117647058826,1,R,asd
0.20100502512562815,0.17338709677419356,0.1861777150916784,0.26666666666666666,0.35189075630252103,1,R,asd
0.20100502512562815,0.17338709677419356,0.1861777150916784,0.26666666666666666,0.35294117647058826,1,R,asd
0.20100502512562815,0.17338709677419356,0.1861777150916784,0.26666666666666666,0.35294117647058826,1,R,asd
0.20100502512562815,0.17338709677419356,0.1847672778561354,0.26666666666666666,0.35189075630252103,1,R,asd
0.20100502512562815,0.1774193548387097,0.1861777150916784,0.265359477124183,0.35294117647058826,1,R,asd
0.20100502512562815,0.17338709677419356,0.1861777150916784,0.26666666666666666,0.35189075630252103,1,R,asd
0.20100502512562815,0.17338709677419356,0.1847672778561354,0.26666666666666666,0.35294117647058826,1,R,asd
0.20100502512562815,0.17338709677419356,0.1847672778561354,0.26666666666666666,0.35294117647058826,1,R,asd
0.20100502512562815,0.17338709677419356,0.1847672778561354,0.26666666666666666,0.35294117647058826,1,R,asd
0.20100502512562815,0.1774193548387097,0.1847672778561354,0.265359477124183,0.35189075630252103,1,R,asd
0.20100502512562815,0.17338709677419356,0.1861777150916784,0.26666666666666666,0.35189075630252103,1,R,asd
0.1984924623115578,0.17338709677419356,0.1847672778561354,0.2679738562091503,0.35189075630252103,1,R,asd
0.20100502512562815,0.17338709677419356,0.1847672778561354,0.26666666666666666,0.35294117647058826,1,R,asd
0.20351758793969849,0.17338709677419356,0.1847672778561354,0.26666666666666666,0.35294117647058826,1,R,asd
0.20100502512562815,0.1774193548387097,0.1847672778561354,0.26666666666666666,0.35189075630252103,1,R,asd
0.20100502512562815,0.1774193548387097,0.1847672778561354,0.265359477124183,0.35189075630252103,1,R,asd
0.20100502512562815,0.1774193548387097,0.1847672778561354,0.26666666666666666,0.35189075630252103,1,R,asd
0.1984924623115578,0.17338709677419356,0.1847672778561354,0.26666666666666666,0.35294117647058826,1,R,asd
0.20351758793969849,0.1774193548387097,0.1847672778561354,0.26666666666666666,0.35189075630252103,1,R,asd
0.20351758793969849,0.1814516129032258,0.1847672778561354,0.265359477124183,0.35294117647058826,1,R,asd
0.20100502512562815,0.1814516129032258,0.1861777150916784,0.265359477124183,0.35189075630252103,1,R,asd
0.20100502512562815,0.1814516129032258,0.1847672778561354,0.26666666666666666,0.35189075630252103,1,R,asd
0.20100502512562815,0.1774193548387097,0.18335684062059238,0.26666666666666666,0.35294117647058826,1,R,asd
0.20351758793969849,0.1774193548387097,0.18335684062059238,0.265359477124183,0.35294117647058826,1,R,asd
0.20351758793969849,0.1814516129032258,0.18335684062059238,0.265359477124183,0.35294117647058826,1,R,asd
0.20100502512562815,0.1814516129032258,0.1847672778561354,0.265359477124183,0.35294117647058826,1,R,asd
0.20100502512562815,0.1814516129032258,0.1847672778561354,0.26666666666666666,0.35189075630252103,1,R,asd
0.20100502512562815,0.1814516129032258,0.1847672778561354,0.26666666666666666,0.35294117647058826,1,R,asd
0.20351758793969849,0.1814516129032258,0.1847672778561354,0.265359477124183,0.35294117647058826,1,R,asd
0.20351758793969849,0.1814516129032258,0.18335684062059238,0.26666666666666666,0.35294117647058826,1,R,asd
0.20100502512562815,0.18548387096774194,0.1847672778561354,0.265359477124183,0.35294117647058826,1,R,asd
0.20100502512562815,0.1814516129032258,0.1861777150916784,0.265359477124183,0.35189075630252103,1,R,asd
0.20100502512562815,0.18548387096774194,0.1847672778561354,0.26666666666666666,0.35294117647058826,1,R,asd
0.20351758793969849,0.1814516129032258,0.1847672778561354,0.26666666666666666,0.35294117647058826,1,R,asd
0.20351758793969849,0.18548387096774194,0.1847672778561354,0.265359477124183,0.35294117647058826,1,R,asd
0.20351758793969849,0.18548387096774194,0.1861777150916784,0.265359477124183,0.35294117647058826,1,R,asd
0.20100502512562815,0.18548387096774194,0.18758815232722145,0.265359477124183,0.35189075630252103,1,R,asd
0.20100502512562815,0.18548387096774194,0.1861777150916784,0.26666666666666666,0.35294117647058826,1,R,asd
0.20100502512562815,0.1814516129032258,0.1861777150916784,0.26666666666666666,0.35294117647058826,1,R,asd
0.20603015075376885,0.18548387096774194,0.1847672778561354,0.265359477124183,0.35294117647058826,1,R,asd
0.20351758793969849,0.18548387096774194,0.1861777150916784,0.265359477124183,0.35294117647058826,1,R,asd
0.20351758793969849,0.1814516129032258,0.18758815232722145,0.265359477124183,0.35294117647058826,1,R,asd
0.20351758793969849,0.1814516129032258,0.18899858956276447,0.26666666666666666,0.35294117647058826,1,R,asd
0.20351758793969849,0.1814516129032258,0.18899858956276447,0.26666666666666666,0.35294117647058826,1,R,asd
0.20603015075376885,0.1774193548387097,0.18758815232722145,0.26666666666666666,0.35294117647058826,1,R,asd
0.20351758793969849,0.1774193548387097,0.18899858956276447,0.265359477124183,0.35294117647058826,1,R,asd
0.20351758793969849,0.1774193548387097,0.19040902679830748,0.265359477124183,0.35189075630252103,1,R,asd
0.20351758793969849,0.1774193548387097,0.19040902679830748,0.26666666666666666,0.35189075630252103,1,R,asd
0.20351758793969849,0.1774193548387097,0.19040902679830748,0.265359477124183,0.35294117647058826,1,R,asd
0.20603015075376885,0.17338709677419356,0.19040902679830748,0.265359477124183,0.35294117647058826,1,R,asd
0.20351758793969849,0.1774193548387097,0.18899858956276447,0.265359477124183,0.35189075630252103,1,R,asd
0.20351758793969849,0.17338709677419356,0.1918194640338505,0.26405228758169935,0.35189075630252103,1,R,asd
0.20351758793969849,0.1774193548387097,0.1918194640338505,0.265359477124183,0.35189075630252103,1,R,asd
0.20351758793969849,0.17338709677419356,0.1918194640338505,0.265359477124183,0.35294117647058826,1,R,asd
0.20351758793969849,0.1693548387096774,0.1918194640338505,0.26405228758169935,0.35294117647058826,1,R,asd
0.20351758793969849,0.1774193548387097,0.19322990126939352,0.265359477124183,0.35189075630252103,1,R,asd
0.20351758793969849,0.17338709677419356,0.19322990126939352,0.26405228758169935,0.35189075630252103,1,R,asd
0.20351758793969849,0.1693548387096774,0.19322990126939352,0.265359477124183,0.35189075630252103,1,R,asd
0.20351758793969849,0.1693548387096774,0.19322990126939352,0.265359477124183,0.35189075630252103,1,R,asd
0.20351758793969849,0.1693548387096774,0.19464033850493653,0.265359477124183,0.35189075630252103,1,R,asd
0.20351758793969849,0.1693548387096774,0.19605077574047955,0.26405228758169935,0.35189075630252103,1,R,asd
